Output Voltage, Run #16
Time ( s )	Voltage ( V )
0.0000	-2.689
0.0100	-1.240
0.0200	-2.628
0.0300	-2.038
0.0400	3.163
0.0500	2.382
0.0600	2.561
0.0700	2.303
0.0800	2.214
0.0900	-2.937
0.1000	-2.660
0.1100	-1.252
0.1200	-2.624
0.1300	-2.059
0.1400	3.195
0.1500	2.391
0.1600	2.569
0.1700	2.292
0.1800	2.205
0.1900	-2.918
0.2000	-2.669
0.2100	-1.248
0.2200	-2.628
0.2300	-2.069
0.2400	3.226
0.2500	2.459
0.2600	2.580
0.2700	2.308
0.2800	2.219
0.2900	-2.935
0.3000	-2.658
0.3100	-1.250
0.3200	-2.627
0.3300	-2.051
0.3400	3.195
0.3500	2.299
0.3600	2.551
0.3700	2.276
0.3800	2.208
0.3900	-2.922
0.4000	-2.667
0.4100	-1.246
0.4200	-2.638
0.4300	-2.057
0.4400	3.200
0.4500	2.431
0.4600	2.568
0.4700	2.277
0.4800	2.183
0.4900	-2.916
0.5000	-2.668
0.5100	-1.242
0.5200	-2.603
0.5300	-2.061
0.5400	3.128
0.5500	2.123
0.5600	2.413
0.5700	2.185
0.5800	2.210
0.5900	-2.910
0.6000	-2.678
0.6100	-1.253
0.6200	-2.629
0.6300	-2.045
0.6400	3.138
0.6500	2.250
0.6600	2.570
0.6700	2.178
0.6800	2.150
0.6900	-2.908
0.7000	-2.675
0.7100	-1.251
0.7200	-2.612
0.7300	-2.067
0.7400	3.178
0.7500	2.279
0.7600	2.523
0.7700	2.274
0.7800	2.211
0.7900	-2.912
0.8000	-2.674
0.8100	-1.265
0.8200	-2.626
0.8300	-2.040
0.8400	3.171
0.8500	2.387
0.8600	2.520
0.8700	2.365
0.8800	2.236
0.8900	-2.865
0.9000	-2.706
0.9100	-1.234
0.9200	-2.633
0.9300	-2.047
0.9400	3.157
0.9500	2.401
0.9600	2.564
0.9700	2.253
0.9800	2.197
0.9900	-2.908
1.0000	-2.664
1.0100	-1.263
1.0200	-2.606
1.0300	-2.093
1.0400	3.204
1.0500	2.192
1.0600	2.398
1.0700	2.353
1.0800	2.174
1.0900	-2.848
1.1000	-2.716
1.1100	-1.227
1.1200	-2.611
1.1300	-2.035
1.1400	3.079
1.1500	2.102
1.1600	2.391
1.1700	2.190
1.1800	2.230
1.1900	-2.860
1.2000	-2.701
1.2100	-1.261
1.2200	-2.579
1.2300	-2.072
1.2400	3.168
1.2500	2.374
1.2600	2.558
1.2700	2.330
1.2800	2.135
1.2900	-2.947
1.3000	-2.642
1.3100	-1.258
1.3200	-2.631
1.3300	-2.045
1.3400	3.188
1.3500	2.385
1.3600	2.503
1.3700	2.380
1.3800	2.149
1.3900	-2.941
1.4000	-2.662
1.4100	-1.242
1.4200	-2.630
1.4300	-2.015
1.4400	3.096
1.4500	2.213
1.4600	2.560
1.4700	2.167
1.4800	2.133
1.4900	-2.892
1.5000	-2.662
1.5100	-1.257
1.5200	-2.578
1.5300	-2.069
1.5400	3.143
1.5500	2.188
1.5600	2.523
1.5700	2.311
1.5800	2.209
1.5900	-2.900
1.6000	-2.682
1.6100	-1.249
1.6200	-2.620
1.6300	-2.031
1.6400	3.148
1.6500	2.353
1.6600	2.546
1.6700	2.299
1.6800	2.192
1.6900	-2.929
1.7000	-2.661
1.7100	-1.252
1.7200	-2.615
1.7300	-2.050
1.7400	3.176
1.7500	2.418
1.7600	2.570
1.7700	2.286
1.7800	2.172
1.7900	-2.901
1.8000	-2.664
1.8100	-1.239
1.8200	-2.606
1.8300	-2.080
1.8400	3.201
1.8500	2.335
1.8600	2.463
1.8700	2.372
1.8800	2.161
1.8900	-2.936
1.9000	-2.666
1.9100	-1.243
1.9200	-2.631
1.9300	-2.014
1.9400	3.130
1.9500	2.225
1.9600	2.347
1.9700	2.316
1.9800	2.246
1.9900	-2.829
2.0000	-2.732
2.0100	-1.255
2.0200	-2.601
2.0300	-2.055
2.0400	3.192
2.0500	2.427
2.0600	2.557
2.0700	2.322
2.0800	2.184
2.0900	-2.908
2.1000	-2.667
2.1100	-1.259
2.1200	-2.611
2.1300	-2.049
2.1400	3.163
2.1500	2.259
2.1600	2.488
2.1700	2.310
2.1800	2.134
2.1900	-2.946
2.2000	-2.655
2.2100	-1.240
2.2200	-2.637
2.2300	-2.023
2.2400	3.175
2.2500	2.479
2.2600	2.568
2.2700	2.252
2.2800	2.166
2.2900	-2.911
2.3000	-2.647
2.3100	-1.248
2.3200	-2.604
2.3300	-2.051
2.3400	3.163
2.3500	2.336
2.3600	2.496
2.3700	2.357
2.3800	2.169
2.3900	-2.851
2.4000	-2.720
2.4100	-1.248
2.4200	-2.590
2.4300	-2.041
2.4400	3.130
2.4500	2.412
2.4600	2.553
2.4700	2.282
2.4800	2.172
2.4900	-2.887
2.5000	-2.667
2.5100	-1.246
2.5200	-2.603
2.5300	-2.083
2.5400	3.216
2.5500	2.360
2.5600	2.545
2.5700	2.319
2.5800	2.218
2.5900	-2.876
2.6000	-2.695
2.6100	-1.226
2.6200	-2.622
2.6300	-2.015
2.6400	3.125
2.6500	2.289
2.6600	2.537
2.6700	2.208
2.6800	2.170
2.6900	-2.897
2.7000	-2.664
2.7100	-1.257
2.7200	-2.612
2.7300	-2.075
2.7400	3.198
2.7500	2.404
2.7600	2.588
2.7700	2.316
2.7800	2.217
2.7900	-2.874
2.8000	-2.670
2.8100	-1.249
2.8200	-2.616
2.8300	-2.076
2.8400	3.244
2.8500	2.447
2.8600	2.490
2.8700	2.217
2.8800	2.104
2.8900	-2.846
2.9000	-2.725
2.9100	-1.216
2.9200	-2.646
2.9300	-2.026
2.9400	3.090
2.9500	2.268
2.9600	2.562
2.9700	2.284
2.9800	2.085
2.9900	-2.877
3.0000	-2.664
3.0100	-1.276
3.0200	-2.553
3.0300	-2.058
3.0400	3.110
3.0500	2.196
3.0600	2.588
3.0700	2.257
3.0800	2.062
3.0900	-2.899
3.1000	-2.676
3.1100	-1.232
3.1200	-2.600
3.1300	-2.053
3.1400	3.060
3.1500	2.283
3.1600	2.445
3.1700	2.255
3.1800	2.172
3.1900	-2.817
3.2000	-2.723
3.2100	-1.232
3.2200	-2.590
3.2300	-2.052
3.2400	3.153
3.2500	2.467
3.2600	2.564
3.2700	2.261
3.2800	2.163
3.2900	-2.899
3.3000	-2.654
3.3100	-1.242
3.3200	-2.582
3.3300	-2.065
3.3400	3.150
3.3500	2.159
3.3600	2.362
3.3700	2.216
3.3800	2.132
3.3900	-2.838
3.4000	-2.715
3.4100	-1.240
3.4200	-2.601
3.4300	-2.035
3.4400	3.154
3.4500	2.451
3.4600	2.554
3.4700	2.318
3.4800	2.153
3.4900	-2.881
3.5000	-2.666
3.5100	-1.262
3.5200	-2.580
3.5300	-2.058
3.5400	3.175
3.5500	2.230
3.5600	2.550
3.5700	2.278
3.5800	2.194
3.5900	-2.873
3.6000	-2.694
3.6100	-1.222
3.6200	-2.611
3.6300	-2.047
3.6400	3.159
3.6500	2.463
3.6600	2.557
3.6700	2.289
3.6800	2.174
3.6900	-2.900
3.7000	-2.665
3.7100	-1.243
3.7200	-2.614
3.7300	-2.062
3.7400	3.207
3.7500	2.353
3.7600	2.564
3.7700	2.292
3.7800	2.198
3.7900	-2.905
3.8000	-2.679
3.8100	-1.240
3.8200	-2.623
3.8300	-2.039
3.8400	3.196
3.8500	2.452
3.8600	2.564
3.8700	2.286
3.8800	2.200
3.8900	-2.904
3.9000	-2.654
3.9100	-1.241
3.9200	-2.610
3.9300	-2.070
3.9400	3.216
3.9500	2.391
3.9600	2.588
3.9700	2.272
3.9800	2.163
3.9900	-2.913
4.0000	-2.653
4.0100	-1.254
4.0200	-2.590
4.0300	-2.064
4.0400	3.195
4.0500	2.429
4.0600	2.400
4.0700	2.238
4.0800	2.081
4.0900	-2.853
4.1000	-2.709
4.1100	-1.235
4.1200	-2.637
4.1300	-2.022
4.1400	3.148
4.1500	2.446
4.1600	2.550
4.1700	2.339
4.1800	2.089
4.1900	-2.880
4.2000	-2.665
4.2100	-1.256
4.2200	-2.582
4.2300	-2.050
4.2400	3.154
4.2500	2.387
4.2600	2.548
4.2700	2.336
4.2800	2.110
4.2900	-2.915
4.3000	-2.658
4.3100	-1.238
4.3200	-2.579
4.3300	-2.040
4.3400	3.092
4.3500	2.124
4.3600	2.404
4.3700	2.239
4.3800	2.175
4.3900	-2.880
4.4000	-2.681
4.4100	-1.240
4.4200	-2.621
4.4300	-2.029
4.4400	3.159
4.4500	2.471
4.4600	2.647
4.4700	2.374
4.4800	2.159
4.4900	-2.896
4.5000	-2.654
4.5100	-1.246
4.5200	-2.611
4.5300	-2.058
4.5400	3.210
4.5500	2.382
4.5600	2.556
4.5700	2.277
4.5800	2.212
4.5900	-2.896
4.6000	-2.673
4.6100	-1.207
4.6200	-2.638
4.6300	-2.024
4.6400	3.116
4.6500	2.256
4.6600	2.558
4.6700	2.121
4.6800	2.102
4.6900	-2.896
4.7000	-2.648
4.7100	-1.251
4.7200	-2.609
4.7300	-2.041
4.7400	3.173
4.7500	2.467
4.7600	2.557
4.7700	2.332
4.7800	2.165
4.7900	-2.894
4.8000	-2.663
4.8100	-1.247
4.8200	-2.622
4.8300	-2.035
4.8400	3.195
4.8500	2.435
4.8600	2.560
4.8700	2.316
4.8800	2.208
4.8900	-2.913
4.9000	-2.646
4.9100	-1.252
4.9200	-2.630
4.9300	-2.035
4.9400	3.195
4.9500	2.481
4.9600	2.567
4.9700	2.348
4.9800	2.191
4.9900	-2.900
5.0000	-2.650
5.0100	-1.240
5.0200	-2.619
5.0300	-2.053
5.0400	3.202
5.0500	2.452
5.0600	2.567
5.0700	2.299
5.0800	2.216
5.0900	-2.871
5.1000	-2.668
5.1100	-1.236
5.1200	-2.643
5.1300	-2.065
5.1400	3.254
5.1500	2.391
5.1600	2.575
5.1700	2.279
5.1800	2.196
5.1900	-2.921
5.2000	-2.642
5.2100	-1.235
5.2200	-2.625
5.2300	-2.058
5.2400	3.212
5.2500	2.458
5.2600	2.575
5.2700	2.336
5.2800	2.156
5.2900	-2.932
5.3000	-2.652
5.3100	-1.251
5.3200	-2.636
5.3300	-2.023
5.3400	3.187
5.3500	2.412
5.3600	2.554
5.3700	2.322
5.3800	2.186
5.3900	-2.960
5.4000	-2.631
5.4100	-1.246
5.4200	-2.635
5.4300	-2.025
5.4400	3.179
5.4500	2.440
5.4600	2.556
5.4700	2.324
5.4800	2.166
5.4900	-2.952
5.5000	-2.628
5.5100	-1.255
5.5200	-2.642
5.5300	-2.035
5.5400	3.190
5.5500	2.426
5.5600	2.555
5.5700	2.264
5.5800	2.175
5.5900	-2.917
5.6000	-2.657
5.6100	-1.240
5.6200	-2.625
5.6300	-2.051
5.6400	3.175
5.6500	2.456
5.6600	2.567
5.6700	2.286
5.6800	2.185
5.6900	-2.905
5.7000	-2.660
5.7100	-1.244
5.7200	-2.622
5.7300	-2.058
5.7400	3.214
5.7500	2.420
5.7600	2.575
5.7700	2.290
5.7800	2.176
5.7900	-2.906
5.8000	-2.655
5.8100	-1.238
5.8200	-2.631
5.8300	-2.062
5.8400	3.203
5.8500	2.463
5.8600	2.572
5.8700	2.285
5.8800	2.201
5.8900	-2.914
5.9000	-2.658
5.9100	-1.255
5.9200	-2.623
5.9300	-2.067
5.9400	3.215
5.9500	2.471
5.9600	2.580
5.9700	2.258
5.9800	2.138
5.9900	-2.908
6.0000	-2.658
6.0100	-1.251
6.0200	-2.613
6.0300	-2.043
6.0400	3.200
6.0500	2.440
6.0600	2.554
6.0700	2.316
6.0800	2.097
6.0900	-2.934
6.1000	-2.647
6.1100	-1.246
6.1200	-2.626
6.1300	-2.021
6.1400	3.153
6.1500	2.467
6.1600	2.556
6.1700	2.279
6.1800	2.200
6.1900	-2.919
6.2000	-2.650
6.2100	-1.258
6.2200	-2.628
6.2300	-2.068
6.2400	3.212
6.2500	2.458
6.2600	2.575
6.2700	2.250
6.2800	2.137
6.2900	-2.903
6.3000	-2.651
6.3100	-1.244
6.3200	-2.607
6.3300	-2.040
6.3400	3.115
6.3500	2.214
6.3600	2.555
6.3700	2.282
6.3800	2.196
6.3900	-2.901
6.4000	-2.668
6.4100	-1.248
6.4200	-2.625
6.4300	-2.036
6.4400	3.189
6.4500	2.456
6.4600	2.642
6.4700	2.340
6.4800	2.210
6.4900	-2.889
6.5000	-2.659
6.5100	-1.245
6.5200	-2.625
6.5300	-2.058
6.5400	3.207
6.5500	2.457
6.5600	2.567
6.5700	2.312
6.5800	2.115
6.5900	-2.932
6.6000	-2.655
6.6100	-1.234
6.6200	-2.640
6.6300	-2.024
6.6400	3.147
6.6500	2.470
6.6600	2.567
6.6700	2.247
6.6800	2.130
6.6900	-2.883
6.7000	-2.658
6.7100	-1.250
6.7200	-2.604
6.7300	-2.056
6.7400	3.189
6.7500	2.456
6.7600	2.556
6.7700	2.289
6.7800	2.144
6.7900	-2.899
6.8000	-2.666
6.8100	-1.246
6.8200	-2.628
6.8300	-2.033
6.8400	3.157
6.8500	2.467
6.8600	2.557
6.8700	2.288
6.8800	2.200
6.8900	-2.904
6.9000	-2.652
6.9100	-1.243
6.9200	-2.625
6.9300	-2.069
6.9400	3.218
6.9500	2.484
6.9600	2.563
6.9700	2.307
6.9800	2.216
6.9900	-2.896
7.0000	-2.651
7.0100	-1.249
7.0200	-2.623
7.0300	-2.047
7.0400	3.212
7.0500	2.441
7.0600	2.563
7.0700	2.358
7.0800	2.200
7.0900	-2.918
7.1000	-2.668
7.1100	-1.232
7.1200	-2.644
7.1300	-2.022
7.1400	3.175
7.1500	2.441
7.1600	2.552
7.1700	2.329
7.1800	2.208
7.1900	-2.955
7.2000	-2.622
7.2100	-1.267
7.2200	-2.621
7.2300	-2.025
7.2400	3.163
7.2500	2.440
7.2600	2.555
7.2700	2.269
7.2800	2.164
7.2900	-2.918
7.3000	-2.647
7.3100	-1.242
7.3200	-2.616
7.3300	-2.039
7.3400	3.160
7.3500	2.459
7.3600	2.557
7.3700	2.308
7.3800	2.203
7.3900	-2.903
7.4000	-2.656
7.4100	-1.242
7.4200	-2.628
7.4300	-2.048
7.4400	3.236
7.4500	2.341
7.4600	2.582
7.4700	2.219
7.4800	2.149
7.4900	-2.908
7.5000	-2.650
7.5100	-1.244
7.5200	-2.623
7.5300	-2.047
7.5400	3.209
7.5500	2.427
7.5600	2.551
7.5700	2.289
7.5800	2.103
7.5900	-2.936
7.6000	-2.649
7.6100	-1.240
7.6200	-2.615
7.6300	-2.017
7.6400	3.131
7.6500	2.469
7.6600	2.560
7.6700	2.253
7.6800	2.123
7.6900	-2.883
7.7000	-2.654
7.7100	-1.245
7.7200	-2.617
7.7300	-2.053
7.7400	3.201
7.7500	2.452
7.7600	2.556
7.7700	2.335
7.7800	2.125
7.7900	-2.902
7.8000	-2.659
7.8100	-1.248
7.8200	-2.624
7.8300	-2.037
7.8400	3.184
7.8500	2.417
7.8600	2.560
7.8700	2.286
7.8800	2.175
7.8900	-2.904
7.9000	-2.644
7.9100	-1.232
7.9200	-2.625
7.9300	-2.073
7.9400	3.169
7.9500	2.326
7.9600	2.576
7.9700	2.266
7.9800	2.157
7.9900	-2.916
8.0000	-2.638
8.0100	-1.268
8.0200	-2.594
8.0300	-2.031
8.0400	3.163
8.0500	2.454
8.0600	2.556
8.0700	2.332
8.0800	2.112
8.0900	-2.928
8.1000	-2.651
8.1100	-1.254
8.1200	-2.625
8.1300	-2.028
8.1400	3.164
8.1500	2.410
8.1600	2.563
8.1700	2.229
8.1800	2.177
8.1900	-2.908
8.2000	-2.643
8.2100	-1.245
8.2200	-2.612
8.2300	-2.049
8.2400	3.173
8.2500	2.462
8.2600	2.551
8.2700	2.279
8.2800	2.172
8.2900	-2.902
8.3000	-2.658
8.3100	-1.245
8.3200	-2.623
8.3300	-2.020
8.3400	3.154
8.3500	2.441
8.3600	2.560
8.3700	2.264
8.3800	2.163
8.3900	-2.897
8.4000	-2.648
8.4100	-1.229
8.4200	-2.622
8.4300	-2.047
8.4400	3.129
8.4500	2.255
8.4600	2.555
8.4700	2.275
8.4800	2.198
8.4900	-2.888
8.5000	-2.661
8.5100	-1.255
8.5200	-2.622
8.5300	-2.029
8.5400	3.188
8.5500	2.386
8.5600	2.562
8.5700	2.268
8.5800	2.163
8.5900	-2.906
8.6000	-2.651
8.6100	-1.234
8.6200	-2.633
8.6300	-2.051
8.6400	3.175
8.6500	2.454
8.6600	2.558
8.6700	2.290
8.6800	2.195
8.6900	-2.897
8.7000	-2.650
8.7100	-1.256
8.7200	-2.625
8.7300	-2.052
8.7400	3.222
8.7500	2.370
8.7600	2.595
8.7700	2.219
8.7800	2.169
8.7900	-2.900
8.8000	-2.648
8.8100	-1.251
8.8200	-2.612
8.8300	-2.042
8.8400	3.201
8.8500	2.420
8.8600	2.551
8.8700	2.321
8.8800	2.116
8.8900	-2.885
8.9000	-2.674
8.9100	-1.241
8.9200	-2.608
8.9300	-2.004
8.9400	3.129
8.9500	2.432
8.9600	2.562
8.9700	2.369
8.9800	2.128
8.9900	-2.892
9.0000	-2.642
9.0100	-1.257
9.0200	-2.593
9.0300	-2.039
9.0400	3.141
9.0500	2.347
9.0600	2.546
9.0700	2.217
9.0800	2.070
9.0900	-2.885
9.1000	-2.653
9.1100	-1.223
9.1200	-2.582
9.1300	-2.045
9.1400	3.076
9.1500	2.114
9.1600	2.493
9.1700	2.122
9.1800	2.108
9.1900	-2.894
9.2000	-2.640
9.2100	-1.241
9.2200	-2.599
9.2300	-2.045
9.2400	3.171
9.2500	2.460
9.2600	2.554
9.2700	2.318
9.2800	2.114
9.2900	-2.918
9.3000	-2.641
9.3100	-1.259
9.3200	-2.609
9.3300	-2.023
9.3400	3.168
9.3500	2.392
9.3600	2.561
9.3700	2.248
9.3800	2.173
9.3900	-2.902
9.4000	-2.636
9.4100	-1.233
9.4200	-2.617
9.4300	-2.038
9.4400	3.131
9.4500	2.321
9.4600	2.555
9.4700	2.277
9.4800	2.187
9.4900	-2.884
9.5000	-2.650
9.5100	-1.263
9.5200	-2.617
9.5300	-2.041
9.5400	3.207
9.5500	2.348
9.5600	2.576
9.5700	2.221
9.5800	2.156
9.5900	-2.910
9.6000	-2.642
9.6100	-1.238
9.6200	-2.619
9.6300	-2.037
9.6400	3.164
9.6500	2.448
9.6600	2.553
9.6700	2.318
9.6800	2.175
9.6900	-2.900
9.7000	-2.652
9.7100	-1.240
9.7200	-2.614
9.7300	-2.017
9.7400	3.139
9.7500	2.398
9.7600	2.587
9.7700	2.347
9.7800	2.166
9.7900	-2.883
9.8000	-2.647
9.8100	-1.249
9.8200	-2.612
9.8300	-2.047
9.8400	3.193
9.8500	2.469
9.8600	2.561
9.8700	2.305
9.8800	2.223
9.8900	-2.886
9.9000	-2.654
9.9100	-1.237
9.9200	-2.637
9.9300	-2.050
9.9400	3.224
9.9500	2.367
9.9600	2.572
9.9700	2.199
9.9800	2.162
9.9900	-2.877
10.0000	-2.638
10.0100	-1.243
10.0200	-2.601
10.0300	-2.059
10.0400	3.181
10.0500	2.445
10.0600	2.561
10.0700	2.341
10.0800	2.116
10.0900	-2.941
10.1000	-2.630
10.1100	-1.247
10.1200	-2.606
10.1300	-2.014
10.1400	3.056
10.1500	2.123
10.1600	2.405
10.1700	2.123
10.1800	2.187
10.1900	-2.898
10.2000	-2.630
10.2100	-1.251
10.2200	-2.604
10.2300	-2.061
10.2400	3.161
10.2500	2.277
10.2600	2.576
10.2700	2.094
10.2800	2.054
10.2900	-2.910
10.3000	-2.618
10.3100	-1.251
10.3200	-2.556
10.3300	-2.059
10.3400	3.082
10.3500	2.085
10.3600	2.398
10.3700	2.271
10.3800	2.138
10.3900	-2.821
10.4000	-2.706
10.4100	-1.221
10.4200	-2.589
10.4300	-2.035
10.4400	3.035
10.4500	2.222
10.4600	2.566
10.4700	2.296
10.4800	2.087
10.4900	-2.872
10.5000	-2.647
10.5100	-1.267
10.5200	-2.545
10.5300	-2.047
10.5400	2.977
10.5500	2.295
10.5600	2.434
10.5700	2.141
10.5800	2.155
10.5900	-2.887
10.6000	-2.639
10.6100	-1.238
10.6200	-2.551
10.6300	-2.058
10.6400	3.087
10.6500	2.280
10.6600	2.557
10.6700	2.268
10.6800	2.102
10.6900	-2.887
10.7000	-2.636
10.7100	-1.234
10.7200	-2.559
10.7300	-2.046
10.7400	3.004
10.7500	2.272
10.7600	2.402
10.7700	2.265
10.7800	2.148
10.7900	-2.901
10.8000	-2.631
10.8100	-1.224
10.8200	-2.573
10.8300	-2.037
10.8400	3.012
10.8500	2.118
10.8600	2.618
10.8700	2.305
10.8800	2.114
10.8900	-2.894
10.9000	-2.626
10.9100	-1.236
10.9200	-2.563
10.9300	-2.050
10.9400	2.977
10.9500	2.168
10.9600	2.394
10.9700	2.263
10.9800	2.109
10.9900	-2.893
11.0000	-2.642
11.0100	-1.227
11.0200	-2.567
11.0300	-2.037
11.0400	3.044
11.0500	2.136
11.0600	2.604
11.0700	2.311
11.0800	2.128
11.0900	-2.888
11.1000	-2.634
11.1100	-1.237
11.1200	-2.564
11.1300	-2.042
11.1400	2.964
11.1500	2.083
11.1600	2.410
11.1700	2.103
11.1800	2.184
11.1900	-2.877
11.2000	-2.647
11.2100	-1.228
11.2200	-2.559
11.2300	-2.060
11.2400	3.132
11.2500	2.305
11.2600	2.556
11.2700	2.315
11.2800	2.098
11.2900	-2.878
11.3000	-2.637
11.3100	-1.226
11.3200	-2.577
11.3300	-2.039
11.3400	2.986
11.3500	2.104
11.3600	2.426
11.3700	2.181
11.3800	2.143
11.3900	-2.874
11.4000	-2.649
11.4100	-1.230
11.4200	-2.565
11.4300	-2.031
11.4400	3.088
11.4500	2.338
11.4600	2.542
11.4700	2.285
11.4800	2.102
11.4900	-2.872
11.5000	-2.631
11.5100	-1.234
11.5200	-2.546
11.5300	-2.037
11.5400	2.994
11.5500	2.230
11.5600	2.449
11.5700	2.096
11.5800	2.196
11.5900	-2.929
11.6000	-2.613
11.6100	-1.247
11.6200	-2.560
11.6300	-2.025
11.6400	3.132
11.6500	2.300
11.6600	2.551
11.6700	2.100
11.6800	2.085
11.6900	-2.916
11.7000	-2.606
11.7100	-1.238
11.7200	-2.551
11.7300	-2.039
11.7400	3.091
11.7500	2.106
11.7600	2.575
11.7700	2.269
11.7800	2.054
11.7900	-2.885
11.8000	-2.638
11.8100	-1.227
11.8200	-2.562
11.8300	-2.048
11.8400	3.090
11.8500	2.185
11.8600	2.567
11.8700	2.296
11.8800	2.076
11.8900	-2.900
11.9000	-2.618
11.9100	-1.234
11.9200	-2.553
11.9300	-2.044
11.9400	3.061
11.9500	2.106
11.9600	2.511
11.9700	2.230
11.9800	2.062
11.9900	-2.895
12.0000	-2.629
12.0100	-1.228
12.0200	-2.567
12.0300	-2.036
12.0400	3.090
12.0500	2.227
12.0600	2.555
12.0700	2.224
12.0800	2.050
12.0900	-2.879
12.1000	-2.633
12.1100	-1.232
12.1200	-2.566
12.1300	-2.042
12.1400	3.096
12.1500	2.143
12.1600	2.592
12.1700	2.133
12.1800	2.158
12.1900	-2.960
12.2000	-2.581
12.2100	-1.238
12.2200	-2.573
12.2300	-2.026
12.2400	3.093
12.2500	2.203
12.2600	2.550
12.2700	2.327
12.2800	2.101
12.2900	-2.883
12.3000	-2.639
12.3100	-1.229
12.3200	-2.589
12.3300	-2.022
12.3400	3.090
12.3500	2.375
12.3600	2.590
12.3700	2.282
12.3800	2.089
12.3900	-2.887
12.4000	-2.618
12.4100	-1.251
12.4200	-2.537
12.4300	-2.045
12.4400	3.090
12.4500	2.195
12.4600	2.564
12.4700	2.324
12.4800	2.117
12.4900	-2.886
12.5000	-2.642
12.5100	-1.218
12.5200	-2.586
12.5300	-2.013
12.5400	3.096
12.5500	2.383
12.5600	2.540
12.5700	2.046
12.5800	2.075
12.5900	-2.873
12.6000	-2.618
12.6100	-1.252
12.6200	-2.540
12.6300	-2.039
12.6400	3.087
12.6500	2.200
12.6600	2.557
12.6700	2.127
12.6800	2.067
12.6900	-2.907
12.7000	-2.618
12.7100	-1.232
12.7200	-2.563
12.7300	-2.029
12.7400	3.090
12.7500	2.189
12.7600	2.562
12.7700	2.126
12.7800	2.087
12.7900	-2.946
12.8000	-2.586
12.8100	-1.244
12.8200	-2.551
12.8300	-2.029
12.8400	3.098
12.8500	2.324
12.8600	2.544
12.8700	2.095
12.8800	2.067
12.8900	-2.886
12.9000	-2.631
12.9100	-1.229
12.9200	-2.559
12.9300	-2.039
12.9400	3.085
12.9500	2.155
12.9600	2.579
12.9700	2.142
12.9800	2.072
12.9900	-2.944
13.0000	-2.584
13.0100	-1.245
13.0200	-2.554
13.0300	-2.026
13.0400	3.082
13.0500	2.226
13.0600	2.550
13.0700	2.057
13.0800	2.158
13.0900	-2.960
13.1000	-2.571
13.1100	-1.248
13.1200	-2.576
13.1300	-2.019
13.1400	3.092
13.1500	2.324
13.1600	2.540
13.1700	2.035
13.1800	2.131
13.1900	-2.902
13.2000	-2.608
13.2100	-1.245
13.2200	-2.583
13.2300	-2.022
13.2400	3.098
13.2500	2.414
13.2600	2.671
13.2700	2.006
13.2800	2.116
13.2900	-2.918
13.3000	-2.597
13.3100	-1.252
13.3200	-2.569
13.3300	-2.043
13.3400	3.082
13.3500	2.147
13.3600	2.571
13.3700	2.039
13.3800	2.186
13.3900	-2.938
13.4000	-2.594
13.4100	-1.235
13.4200	-2.572
13.4300	-2.016
13.4400	3.096
13.4500	2.403
13.4600	2.597
13.4700	1.982
13.4800	2.122
13.4900	-2.937
13.5000	-2.567
13.5100	-1.251
13.5200	-2.567
13.5300	-2.034
13.5400	3.088
13.5500	2.191
13.5600	2.559
13.5700	2.219
13.5800	2.069
13.5900	-2.904
13.6000	-2.628
13.6100	-1.218
13.6200	-2.562
13.6300	-2.029
13.6400	3.118
13.6500	2.316
13.6600	2.543
13.6700	2.332
13.6800	2.097
13.6900	-2.877
13.7000	-2.636
13.7100	-1.224
13.7200	-2.575
13.7300	-2.025
13.7400	3.098
13.7500	2.226
13.7600	2.550
13.7700	2.322
13.7800	2.117
13.7900	-2.882
13.8000	-2.648
13.8100	-1.223
13.8200	-2.562
13.8300	-2.017
13.8400	3.108
13.8500	2.392
13.8600	2.532
13.8700	2.255
13.8800	2.044
13.8900	-2.883
13.9000	-2.637
13.9100	-1.228
13.9200	-2.556
13.9300	-2.050
13.9400	3.063
13.9500	2.083
13.9600	2.446
13.9700	2.173
13.9800	2.184
13.9900	-2.875
14.0000	-2.640
14.0100	-1.231
14.0200	-2.612
14.0300	-2.030
14.0400	3.210
14.0500	2.433
14.0600	2.559
14.0700	2.228
14.0800	2.127
14.0900	-2.886
14.1000	-2.623
14.1100	-1.234
14.1200	-2.578
14.1300	-2.028
14.1400	3.186
14.1500	2.340
14.1600	2.545
14.1700	2.297
14.1800	2.169
14.1900	-2.899
14.2000	-2.617
14.2100	-1.244
14.2200	-2.588
14.2300	-2.027
14.2400	3.190
14.2500	2.358
14.2600	2.543
14.2700	2.211
14.2800	2.114
14.2900	-2.863
14.3000	-2.636
14.3100	-1.236
14.3200	-2.590
14.3300	-2.034
14.3400	3.194
14.3500	2.356
14.3600	2.547
14.3700	2.317
14.3800	2.119
14.3900	-2.920
14.4000	-2.611
14.4100	-1.237
14.4200	-2.592
14.4300	-2.013
14.4400	3.166
14.4500	2.354
14.4600	2.534
14.4700	2.304
14.4800	2.145
14.4900	-2.916
14.5000	-2.631
14.5100	-1.227
14.5200	-2.614
14.5300	-2.006
14.5400	3.177
14.5500	2.312
14.5600	2.532
14.5700	2.252
14.5800	2.137
14.5900	-2.874
14.6000	-2.628
14.6100	-1.235
14.6200	-2.574
14.6300	-2.048
14.6400	3.168
14.6500	2.443
14.6600	2.563
14.6700	2.251
14.6800	2.150
14.6900	-2.887
14.7000	-2.622
14.7100	-1.232
14.7200	-2.584
14.7300	-2.022
14.7400	3.154
14.7500	2.429
14.7600	2.543
14.7700	2.315
14.7800	2.111
14.7900	-2.916
14.8000	-2.625
14.8100	-1.249
14.8200	-2.599
14.8300	-1.993
14.8400	3.149
14.8500	2.344
14.8600	2.542
14.8700	2.271
14.8800	2.185
14.8900	-2.901
14.9000	-2.617
14.9100	-1.240
14.9200	-2.601
14.9300	-2.044
14.9400	3.191
14.9500	2.468
14.9600	2.554
14.9700	1.973
14.9800	2.084
14.9900	-2.894
15.0000	-2.609
15.0100	-1.229
15.0200	-2.537
15.0300	-2.047
15.0400	3.110
15.0500	2.153
15.0600	2.376
15.0700	2.319
15.0800	2.189
15.0900	-2.884
15.1000	-2.643
15.1100	-1.214
15.1200	-2.578
15.1300	-2.017
15.1400	3.131
15.1500	2.424
15.1600	2.543
15.1700	2.250
15.1800	2.144
15.1900	-2.872
15.2000	-2.629
15.2100	-1.219
15.2200	-2.556
15.2300	-2.036
15.2400	3.132
15.2500	2.400
15.2600	2.545
15.2700	2.287
15.2800	2.112
15.2900	-2.894
15.3000	-2.625
15.3100	-1.237
15.3200	-2.603
15.3300	-2.001
15.3400	3.164
15.3500	2.344
15.3600	2.538
15.3700	2.245
15.3800	2.145
15.3900	-2.885
15.4000	-2.627
15.4100	-1.233
15.4200	-2.582
15.4300	-2.026
15.4400	3.147
15.4500	2.442
15.4600	2.557
15.4700	2.282
15.4800	2.171
15.4900	-2.875
15.5000	-2.620
15.5100	-1.246
15.5200	-2.589
15.5300	-2.025
15.5400	3.201
15.5500	2.360
15.5600	2.546
15.5700	2.305
15.5800	2.149
15.5900	-2.910
15.6000	-2.629
15.6100	-1.225
15.6200	-2.605
15.6300	-2.003
15.6400	3.181
15.6500	2.347
15.6600	2.529
15.6700	2.358
15.6800	2.155
15.6900	-2.913
15.7000	-2.623
15.7100	-1.235
15.7200	-2.598
15.7300	-1.993
15.7400	3.157
15.7500	2.313
15.7600	2.535
15.7700	2.223
15.7800	2.139
15.7900	-2.871
15.8000	-2.629
15.8100	-1.227
15.8200	-2.576
15.8300	-2.032
15.8400	3.163
15.8500	2.439
15.8600	2.537
15.8700	2.225
15.8800	2.188
15.8900	-2.863
15.9000	-2.650
15.9100	-1.232
15.9200	-2.584
15.9300	-2.006
15.9400	3.129
15.9500	2.375
15.9600	2.541
15.9700	2.308
15.9800	2.078
15.9900	-2.874
16.0000	-2.632
16.0100	-1.258
16.0200	-2.542
16.0300	-2.027
16.0400	3.132
16.0500	2.443
16.0600	2.531
16.0700	2.196
16.0800	2.185
16.0900	-2.854
16.1000	-2.654
16.1100	-1.215
16.1200	-2.571
16.1300	-2.018
16.1400	3.103
16.1500	2.448
16.1600	2.551
16.1700	2.307
16.1800	2.116
16.1900	-2.863
16.2000	-2.640
16.2100	-1.243
16.2200	-2.553
16.2300	-2.032
16.2400	3.165
16.2500	2.445
16.2600	2.538
16.2700	2.232
16.2800	2.191
16.2900	-2.864
16.3000	-2.656
16.3100	-1.216
16.3200	-2.579
16.3300	-2.019
16.3400	3.135
16.3500	2.403
16.3600	2.550
16.3700	2.310
16.3800	2.097
16.3900	-2.870
16.4000	-2.637
16.4100	-1.241
16.4200	-2.557
16.4300	-2.039
16.4400	3.162
16.4500	2.439
16.4600	2.540
16.4700	2.303
16.4800	2.102
16.4900	-2.888
16.5000	-2.629
16.5100	-1.225
16.5200	-2.576
16.5300	-2.021
16.5400	3.148
16.5500	2.424
16.5600	2.545
16.5700	2.294
16.5800	2.132
16.5900	-2.876
16.6000	-2.634
16.6100	-1.242
16.6200	-2.584
16.6300	-2.028
16.6400	3.166
16.6500	2.382
16.6600	2.560
16.6700	2.267
16.6800	2.188
16.6900	-2.872
16.7000	-2.628
16.7100	-1.241
16.7200	-2.575
16.7300	-2.039
16.7400	3.204
16.7500	2.362
16.7600	2.542
16.7700	2.152
16.7800	2.139
16.7900	-2.800
16.8000	-2.700
16.8100	-1.208
16.8200	-2.598
16.8300	-2.002
16.8400	3.121
16.8500	2.415
16.8600	2.535
16.8700	2.292
16.8800	2.105
16.8900	-2.861
16.9000	-2.640
16.9100	-1.271
16.9200	-2.531
16.9300	-2.025
16.9400	3.148
16.9500	2.398
16.9600	2.566
16.9700	2.120
16.9800	2.044
16.9900	-2.853
17.0000	-2.642
17.0100	-1.217
17.0200	-2.543
17.0300	-2.037
17.0400	3.085
17.0500	2.115
17.0600	2.348
17.0700	2.282
17.0800	2.117
17.0900	-2.814
17.1000	-2.686
17.1100	-1.209
17.1200	-2.568
17.1300	-2.014
17.1400	3.123
17.1500	2.368
17.1600	2.551
17.1700	2.325
17.1800	2.100
17.1900	-2.855
17.2000	-2.634
17.2100	-1.261
17.2200	-2.518
17.2300	-2.020
17.2400	3.101
17.2500	2.376
17.2600	2.520
17.2700	2.133
17.2800	2.196
17.2900	-2.856
17.3000	-2.657
17.3100	-1.224
17.3200	-2.572
17.3300	-2.012
17.3400	3.117
17.3500	2.434
17.3600	2.546
17.3700	1.997
17.3800	2.122
17.3900	-2.924
17.4000	-2.579
17.4100	-1.262
17.4200	-2.531
17.4300	-2.038
17.4400	3.135
17.4500	2.374
17.4600	2.530
17.4700	2.149
17.4800	2.188
17.4900	-2.881
17.5000	-2.632
17.5100	-1.210
17.5200	-2.573
17.5300	-2.014
17.5400	3.124
17.5500	2.465
17.5600	2.545
17.5700	1.999
17.5800	2.122
17.5900	-2.926
17.6000	-2.587
17.6100	-1.251
17.6200	-2.530
17.6300	-2.027
17.6400	3.133
17.6500	2.399
17.6600	2.532
17.6700	2.183
17.6800	2.189
17.6900	-2.877
17.7000	-2.636
17.7100	-1.212
17.7200	-2.578
17.7300	-2.011
17.7400	3.107
17.7500	2.432
17.7600	2.545
17.7700	2.020
17.7800	2.133
17.7900	-2.912
17.8000	-2.592
17.8100	-1.248
17.8200	-2.535
17.8300	-2.024
17.8400	3.120
17.8500	2.398
17.8600	2.532
17.8700	2.207
17.8800	2.153
17.8900	-2.865
17.9000	-2.634
17.9100	-1.217
17.9200	-2.563
17.9300	-2.026
17.9400	3.143
17.9500	2.428
17.9600	2.562
17.9700	1.987
17.9800	2.123
17.9900	-2.883
18.0000	-2.608
18.0100	-1.241
18.0200	-2.530
18.0300	-2.030
18.0400	3.129
18.0500	2.379
18.0600	2.513
18.0700	2.297
18.0800	2.153
18.0900	-2.828
18.1000	-2.672
18.1100	-1.204
18.1200	-2.561
18.1300	-2.026
18.1400	3.121
18.1500	2.411
18.1600	2.545
18.1700	2.150
18.1800	2.095
18.1900	-2.852
18.2000	-2.635
18.2100	-1.254
18.2200	-2.517
18.2300	-2.031
18.2400	3.097
18.2500	2.382
18.2600	2.518
18.2700	2.131
18.2800	2.189
18.2900	-2.844
18.3000	-2.642
18.3100	-1.213
18.3200	-2.576
18.3300	-2.018
18.3400	3.135
18.3500	2.407
18.3600	2.535
18.3700	1.993
18.3800	2.092
18.3900	-2.905
18.4000	-2.587
18.4100	-1.249
18.4200	-2.546
18.4300	-2.012
18.4400	3.120
18.4500	2.434
18.4600	2.522
18.4700	2.014
18.4800	2.126
18.4900	-2.918
18.5000	-2.580
18.5100	-1.232
18.5200	-2.564
18.5300	-1.997
18.5400	3.112
18.5500	2.425
18.5600	2.530
18.5700	2.033
18.5800	2.066
18.5900	-2.868
18.6000	-2.610
18.6100	-1.252
18.6200	-2.536
18.6300	-2.026
18.6400	3.118
18.6500	2.391
18.6600	2.524
18.6700	2.029
18.6800	2.045
18.6900	-2.864
18.7000	-2.605
18.7100	-1.236
18.7200	-2.550
18.7300	-2.006
18.7400	3.110
18.7500	2.343
18.7600	2.528
18.7700	2.040
18.7800	2.080
18.7900	-2.869
18.8000	-2.614
18.8100	-1.224
18.8200	-2.557
18.8300	-2.007
18.8400	3.109
18.8500	2.440
18.8600	2.539
18.8700	1.991
18.8800	2.028
18.8900	-2.852
18.9000	-2.609
18.9100	-1.244
18.9200	-2.532
18.9300	-2.026
18.9400	3.112
18.9500	2.376
18.9600	2.536
18.9700	2.019
18.9800	2.035
18.9900	-2.862
19.0000	-2.608
19.0100	-1.233
19.0200	-2.556
19.0300	-2.006
19.0400	3.109
19.0500	2.378
19.0600	2.537
19.0700	2.022
19.0800	2.034
19.0900	-2.847
19.1000	-2.616
19.1100	-1.229
19.1200	-2.557
19.1300	-2.004
19.1400	3.113
19.1500	2.456
19.1600	2.585
19.1700	1.973
19.1800	2.016
19.1900	-2.855
19.2000	-2.611
19.2100	-1.243
19.2200	-2.542
19.2300	-2.017
19.2400	3.112
19.2500	2.364
19.2600	2.529
19.2700	2.029
19.2800	2.125
19.2900	-2.885
19.3000	-2.608
19.3100	-1.227
19.3200	-2.556
19.3300	-2.015
19.3400	3.124
19.3500	2.462
19.3600	2.662
19.3700	1.989
19.3800	2.034
19.3900	-2.875
19.4000	-2.588
19.4100	-1.236
19.4200	-2.557
19.4300	-2.014
19.4400	3.099
19.4500	2.319
19.4600	2.531
19.4700	2.023
19.4800	2.134
19.4900	-2.899
19.5000	-2.601
19.5100	-1.222
19.5200	-2.573
19.5300	-2.007
19.5400	3.124
19.5500	2.452
19.5600	2.622
19.5700	1.998
19.5800	2.015
19.5900	-2.854
19.6000	-2.598
19.6100	-1.239
19.6200	-2.548
19.6300	-2.009
19.6400	3.111
19.6500	2.393
19.6600	2.531
19.6700	2.026
19.6800	2.101
19.6900	-2.911
19.7000	-2.582
19.7100	-1.227
19.7200	-2.571
19.7300	-1.995
19.7400	3.107
19.7500	2.439
19.7600	2.524
19.7700	2.018
19.7800	2.069
19.7900	-2.870
19.8000	-2.604
19.8100	-1.229
19.8200	-2.556
19.8300	-2.014
19.8400	3.120
19.8500	2.441
19.8600	2.707
19.8700	1.976
19.8800	2.060
19.8900	-2.952
19.9000	-2.551
19.9100	-1.235
19.9200	-2.560
19.9300	-2.001
19.9400	3.103
19.9500	2.330
19.9600	2.518
19.9700	2.153
19.9800	2.159
19.9900	-2.885
20.0000	-2.625
20.0100	-1.210
20.0200	-2.562
20.0300	-2.012
20.0400	3.128
20.0500	2.358
20.0600	2.701
20.0700	1.972
20.0800	2.064
20.0900	-2.909
20.1000	-2.557
20.1100	-1.263
20.1200	-2.534
20.1300	-2.008
20.1400	3.085
20.1500	2.339
20.1600	2.519
20.1700	2.037
20.1800	2.119
20.1900	-2.900
20.2000	-2.606
20.2100	-1.216
20.2200	-2.562
20.2300	-2.009
20.2400	3.115
20.2500	2.456
20.2600	2.625
20.2700	1.999
20.2800	2.042
20.2900	-2.894
20.3000	-2.562
20.3100	-1.251
20.3200	-2.549
20.3300	-2.016
20.3400	3.098
20.3500	2.362
20.3600	2.523
20.3700	2.029
20.3800	2.078
20.3900	-2.896
20.4000	-2.602
20.4100	-1.225
20.4200	-2.561
20.4300	-2.009
20.4400	3.099
20.4500	2.343
20.4600	2.522
20.4700	2.034
20.4800	2.091
20.4900	-2.882
20.5000	-2.601
20.5100	-1.229
20.5200	-2.553
20.5300	-1.999
20.5400	3.105
20.5500	2.465
20.5600	2.664
20.5700	1.980
20.5800	2.062
20.5900	-2.916
20.6000	-2.562
20.6100	-1.237
20.6200	-2.557
20.6300	-2.008
20.6400	3.092
20.6500	2.211
20.6600	2.531
20.6700	2.013
20.6800	2.166
20.6900	-2.893
20.7000	-2.601
20.7100	-1.219
20.7200	-2.565
20.7300	-2.006
20.7400	3.123
20.7500	2.393
20.7600	2.711
20.7700	1.957
20.7800	2.058
20.7900	-2.929
20.8000	-2.556
20.8100	-1.257
20.8200	-2.545
20.8300	-2.017
20.8400	3.103
20.8500	2.274
20.8600	2.530
20.8700	2.302
20.8800	2.060
20.8900	-2.879
20.9000	-2.651
20.9100	-1.213
20.9200	-2.546
20.9300	-2.027
20.9400	3.147
20.9500	2.340
20.9600	2.703
20.9700	1.945
20.9800	2.107
20.9900	-2.860
21.0000	-2.603
21.0100	-1.229
21.0200	-2.526
21.0300	-2.032
21.0400	3.104
21.0500	2.310
21.0600	2.482
21.0700	2.312
21.0800	2.131
21.0900	-2.860
21.1000	-2.661
21.1100	-1.193
21.1200	-2.566
21.1300	-2.015
21.1400	3.133
21.1500	2.335
21.1600	2.566
21.1700	2.329
21.1800	2.083
21.1900	-2.873
21.2000	-2.608
21.2100	-1.244
21.2200	-2.540
21.2300	-2.013
21.2400	3.107
21.2500	2.451
21.2600	2.520
21.2700	2.095
21.2800	2.075
21.2900	-2.903
21.3000	-2.595
21.3100	-1.211
21.3200	-2.546
21.3300	-2.020
21.3400	3.076
21.3500	2.200
21.3600	2.526
21.3700	2.255
21.3800	2.145
21.3900	-2.867
21.4000	-2.618
21.4100	-1.231
21.4200	-2.568
21.4300	-2.015
21.4400	3.134
21.4500	2.430
21.4600	2.593
21.4700	2.238
21.4800	2.089
21.4900	-2.874
21.5000	-2.617
21.5100	-1.221
21.5200	-2.538
21.5300	-2.017
21.5400	3.073
21.5500	2.207
21.5600	2.535
21.5700	2.239
21.5800	2.054
21.5900	-2.894
21.6000	-2.602
21.6100	-1.222
21.6200	-2.543
21.6300	-2.019
21.6400	3.090
21.6500	2.257
21.6600	2.535
21.6700	2.230
21.6800	2.047
21.6900	-2.871
21.7000	-2.611
21.7100	-1.218
21.7200	-2.512
21.7300	-2.037
21.7400	3.015
21.7500	2.164
21.7600	2.389
21.7700	2.202
21.7800	2.111
21.7900	-2.846
21.8000	-2.649
21.8100	-1.212
21.8200	-2.552
21.8300	-2.022
21.8400	3.077
21.8500	2.398
21.8600	2.524
21.8700	2.003
21.8800	2.099
21.8900	-2.904
21.9000	-2.575
21.9100	-1.253
21.9200	-2.488
21.9300	-2.029
21.9400	3.095
21.9500	2.151
21.9600	2.491
21.9700	2.234
21.9800	2.182
21.9900	-2.849
22.0000	-2.648
22.0100	-1.216
22.0200	-2.546
22.0300	-2.038
22.0400	3.132
22.0500	2.461
22.0600	2.526
22.0700	2.023
22.0800	2.135
22.0900	-2.896
22.1000	-2.597
22.1100	-1.246
22.1200	-2.499
22.1300	-2.042
22.1400	3.104
22.1500	2.302
22.1600	2.525
22.1700	2.160
22.1800	2.173
22.1900	-2.873
22.2000	-2.626
22.2100	-1.229
22.2200	-2.553
22.2300	-2.019
22.2400	3.111
22.2500	2.454
22.2600	2.529
22.2700	2.010
22.2800	2.081
22.2900	-2.921
22.3000	-2.578
22.3100	-1.256
22.3200	-2.515
22.3300	-2.025
22.3400	3.092
22.3500	2.235
22.3600	2.534
22.3700	2.031
22.3800	2.106
22.3900	-2.897
22.4000	-2.600
22.4100	-1.232
22.4200	-2.543
22.4300	-2.014
22.4400	3.088
22.4500	2.336
22.4600	2.528
22.4700	2.034
22.4800	2.073
22.4900	-2.873
22.5000	-2.604
22.5100	-1.247
22.5200	-2.531
22.5300	-2.036
22.5400	3.096
22.5500	2.274
22.5600	2.532
22.5700	2.015
22.5800	2.105
22.5900	-2.941
22.6000	-2.567
22.6100	-1.243
22.6200	-2.535
22.6300	-2.014
22.6400	3.062
22.6500	2.161
22.6600	2.545
22.6700	2.038
22.6800	2.157
22.6900	-2.916
22.7000	-2.595
22.7100	-1.233
22.7200	-2.537
22.7300	-2.021
22.7400	3.097
22.7500	2.492
22.7600	2.721
22.7700	1.981
22.7800	2.114
22.7900	-2.907
22.8000	-2.588
22.8100	-1.242
22.8200	-2.526
22.8300	-2.033
22.8400	3.089
22.8500	2.175
22.8600	2.542
22.8700	2.070
22.8800	2.173
22.8900	-2.913
22.9000	-2.615
22.9100	-1.234
22.9200	-2.537
22.9300	-2.028
22.9400	3.127
22.9500	2.475
22.9600	2.617
22.9700	1.990
22.9800	2.058
22.9900	-2.927
23.0000	-2.553
23.0100	-1.252
23.0200	-2.543
23.0300	-2.012
23.0400	3.030
23.0500	2.124
23.0600	2.563
23.0700	2.009
23.0800	2.133
23.0900	-2.924
23.1000	-2.591
23.1100	-1.246
23.1200	-2.536
23.1300	-2.012
23.1400	3.052
23.1500	2.330
23.1600	2.602
23.1700	2.025
23.1800	2.141
23.1900	-2.886
23.2000	-2.601
23.2100	-1.251
23.2200	-2.521
23.2300	-2.051
23.2400	3.072
23.2500	2.189
23.2600	2.535
23.2700	2.043
23.2800	2.114
23.2900	-2.913
23.3000	-2.617
23.3100	-1.240
23.3200	-2.520
23.3300	-2.046
23.3400	3.104
23.3500	2.285
23.3600	2.531
23.3700	2.036
23.3800	2.055
23.3900	-2.907
23.4000	-2.578
23.4100	-1.249
23.4200	-2.544
23.4300	-2.017
23.4400	3.077
23.4500	2.307
23.4600	2.544
23.4700	2.004
23.4800	2.083
23.4900	-2.939
23.5000	-2.575
23.5100	-1.249
23.5200	-2.535
23.5300	-2.025
23.5400	3.080
23.5500	2.253
23.5600	2.533
23.5700	2.037
23.5800	2.091
23.5900	-2.915
23.6000	-2.588
23.6100	-1.246
23.6200	-2.539
23.6300	-2.019
23.6400	3.087
23.6500	2.371
23.6600	2.556
23.6700	2.002
23.6800	2.089
23.6900	-2.933
23.7000	-2.575
23.7100	-1.250
23.7200	-2.542
23.7300	-2.024
23.7400	3.091
23.7500	2.268
23.7600	2.536
23.7700	2.041
23.7800	2.091
23.7900	-2.907
23.8000	-2.592
23.8100	-1.249
23.8200	-2.545
23.8300	-2.018
23.8400	3.057
23.8500	2.249
23.8600	2.542
23.8700	2.029
23.8800	2.142
23.8900	-2.913
23.9000	-2.588
23.9100	-1.248
23.9200	-2.536
23.9300	-2.039
23.9400	3.115
23.9500	2.336
23.9600	2.526
23.9700	2.031
23.9800	2.081
23.9900	-2.926
24.0000	-2.589
24.0100	-1.247
24.0200	-2.546
24.0300	-2.021
24.0400	3.095
24.0500	2.400
24.0600	2.526
24.0700	2.017
24.0800	2.064
24.0900	-2.925
24.1000	-2.578
24.1100	-1.263
24.1200	-2.551
24.1300	-2.018
24.1400	3.104
24.1500	2.434
24.1600	2.536
24.1700	1.992
24.1800	2.053
24.1900	-2.939
24.2000	-2.575
24.2100	-1.256
24.2200	-2.548
24.2300	-2.019
24.2400	3.090
24.2500	2.259
24.2600	2.532
24.2700	2.039
24.2800	2.129
24.2900	-2.918
24.3000	-2.601
24.3100	-1.248
24.3200	-2.543
24.3300	-2.029
24.3400	3.099
24.3500	2.456
24.3600	2.645
24.3700	1.976
24.3800	2.122
24.3900	-2.937
24.4000	-2.579
24.4100	-1.253
24.4200	-2.522
24.4300	-2.036
24.4400	3.095
24.4500	2.208
24.4600	2.546
24.4700	2.017
24.4800	2.168
24.4900	-2.911
24.5000	-2.617
24.5100	-1.232
24.5200	-2.546
24.5300	-2.039
24.5400	3.117
24.5500	2.486
24.5600	2.696
24.5700	1.984
24.5800	2.119
24.5900	-2.915
24.6000	-2.587
24.6100	-1.257
24.6200	-2.522
24.6300	-2.059
24.6400	3.073
24.6500	2.147
24.6600	2.563
24.6700	1.992
24.6800	2.167
24.6900	-2.921
24.7000	-2.615
24.7100	-1.248
24.7200	-2.534
24.7300	-2.047
24.7400	3.114
24.7500	2.449
24.7600	2.571
24.7700	2.014
24.7800	2.068
24.7900	-2.905
24.8000	-2.589
24.8100	-1.260
24.8200	-2.528
24.8300	-2.044
24.8400	3.093
24.8500	2.235
24.8600	2.535
24.8700	2.040
24.8800	2.113
24.8900	-2.913
24.9000	-2.608
24.9100	-1.243
24.9200	-2.537
24.9300	-2.044
24.9400	3.079
24.9500	2.188
24.9600	2.550
24.9700	2.030
24.9800	2.129
24.9900	-2.940
25.0000	-2.576
25.0100	-1.254
25.0200	-2.534
25.0300	-2.032
25.0400	3.117
25.0500	2.416
25.0600	2.549
25.0700	2.008
25.0800	2.084
25.0900	-2.952
25.1000	-2.579
25.1100	-1.263
25.1200	-2.531
25.1300	-2.035
25.1400	3.115
25.1500	2.368
25.1600	2.528
25.1700	2.048
25.1800	2.087
25.1900	-2.901
25.2000	-2.612
25.2100	-1.255
25.2200	-2.531
25.2300	-2.037
25.2400	3.124
25.2500	2.492
25.2600	2.698
25.2700	1.995
25.2800	2.128
25.2900	-2.905
25.3000	-2.603
25.3100	-1.254
25.3200	-2.509
25.3300	-2.069
25.3400	3.085
25.3500	2.153
25.3600	2.550
25.3700	2.025
25.3800	2.118
25.3900	-2.877
25.4000	-2.642
25.4100	-1.248
25.4200	-2.521
25.4300	-2.068
25.4400	3.083
25.4500	2.302
25.4600	2.543
25.4700	2.040
25.4800	2.100
25.4900	-2.886
25.5000	-2.615
25.5100	-1.284
25.5200	-2.515
25.5300	-2.062
25.5400	3.072
25.5500	2.186
25.5600	2.512
25.5700	2.058
25.5800	2.088
25.5900	-2.874
25.6000	-2.654
25.6100	-1.289
25.6200	-2.506
25.6300	-2.063
25.6400	3.055
25.6500	2.264
25.6600	2.611
25.6700	2.050
25.6800	2.156
25.6900	-2.879
25.7000	-2.631
25.7100	-1.276
25.7200	-2.504
25.7300	-2.053
25.7400	3.042
25.7500	2.118
25.7600	2.555
25.7700	1.949
25.7800	2.133
25.7900	-2.888
25.8000	-2.640
25.8100	-1.272
25.8200	-2.523
25.8300	-2.051
25.8400	3.123
25.8500	2.468
25.8600	2.664
25.8700	1.939
25.8800	2.028
25.8900	-2.890
25.9000	-2.597
25.9100	-1.266
25.9200	-2.533
25.9300	-2.034
25.9400	3.092
25.9500	2.407
25.9600	2.540
25.9700	1.959
25.9800	2.040
25.9900	-2.911
26.0000	-2.594
26.0100	-1.261
26.0200	-2.523
26.0300	-2.039
26.0400	3.105
26.0500	2.451
26.0600	2.559
26.0700	1.978
26.0800	2.044
26.0900	-2.919
26.1000	-2.591
26.1100	-1.273
26.1200	-2.526
26.1300	-2.039
26.1400	3.104
26.1500	2.401
26.1600	2.532
26.1700	1.993
26.1800	2.058
26.1900	-2.931
26.2000	-2.585
26.2100	-1.257
26.2200	-2.528
26.2300	-2.018
26.2400	3.082
26.2500	2.307
26.2600	2.536
26.2700	2.004
26.2800	2.059
26.2900	-2.938
26.3000	-2.564
26.3100	-1.270
26.3200	-2.529
26.3300	-2.026
26.3400	3.090
26.3500	2.378
26.3600	2.538
26.3700	1.989
26.3800	2.058
26.3900	-2.942
26.4000	-2.569
26.4100	-1.270
26.4200	-2.535
26.4300	-2.032
26.4400	3.073
26.4500	2.261
26.4600	2.534
26.4700	2.037
26.4800	2.083
26.4900	-2.946
26.5000	-2.571
26.5100	-1.266
26.5200	-2.538
26.5300	-2.023
26.5400	3.093
26.5500	2.444
26.5600	2.587
26.5700	1.986
26.5800	2.062
26.5900	-2.948
26.6000	-2.574
26.6100	-1.267
26.6200	-2.528
26.6300	-2.034
26.6400	3.099
26.6500	2.304
26.6600	2.528
26.6700	2.033
26.6800	2.078
26.6900	-2.943
26.7000	-2.581
26.7100	-1.262
26.7200	-2.534
26.7300	-2.024
26.7400	3.095
26.7500	2.457
26.7600	2.627
26.7700	1.978
26.7800	2.073
26.7900	-2.936
26.8000	-2.577
26.8100	-1.265
26.8200	-2.522
26.8300	-2.041
26.8400	3.122
26.8500	2.369
26.8600	2.528
26.8700	2.039
26.8800	2.120
26.8900	-2.933
26.9000	-2.593
26.9100	-1.253
26.9200	-2.539
26.9300	-2.029
26.9400	3.132
26.9500	2.479
26.9600	2.612
26.9700	1.991
26.9800	2.062
26.9900	-2.947
27.0000	-2.565
27.0100	-1.268
27.0200	-2.532
27.0300	-2.033
27.0400	3.116
27.0500	2.398
27.0600	2.540
27.0700	2.031
27.0800	2.081
27.0900	-2.925
27.1000	-2.588
27.1100	-1.254
27.1200	-2.540
27.1300	-2.024
27.1400	3.098
27.1500	2.456
27.1600	2.600
27.1700	1.989
27.1800	2.063
27.1900	-2.943
27.2000	-2.575
27.2100	-1.272
27.2200	-2.545
27.2300	-2.028
27.2400	3.117
27.2500	2.445
27.2600	2.538
27.2700	2.022
27.2800	2.081
27.2900	-2.929
27.3000	-2.592
27.3100	-1.258
27.3200	-2.551
27.3300	-2.029
27.3400	3.131
27.3500	2.468
27.3600	2.585
27.3700	2.000
27.3800	2.056
27.3900	-2.931
27.4000	-2.579
27.4100	-1.260
27.4200	-2.545
27.4300	-2.026
27.4400	3.103
27.4500	2.440
27.4600	2.536
27.4700	2.000
27.4800	2.045
27.4900	-2.917
27.5000	-2.580
27.5100	-1.263
27.5200	-2.552
27.5300	-2.025
27.5400	3.116
27.5500	2.468
27.5600	2.576
27.5700	1.950
27.5800	2.050
27.5900	-2.936
27.6000	-2.574
27.6100	-1.265
27.6200	-2.552
27.6300	-2.021
27.6400	3.104
27.6500	2.437
27.6600	2.537
27.6700	2.029
27.6800	2.072
27.6900	-2.936
27.7000	-2.579
27.7100	-1.262
27.7200	-2.563
27.7300	-2.019
27.7400	3.132
27.7500	2.468
27.7600	2.604
27.7700	1.981
27.7800	2.051
27.7900	-2.948
27.8000	-2.570
27.8100	-1.266
27.8200	-2.543
27.8300	-2.032
27.8400	3.119
27.8500	2.450
27.8600	2.539
27.8700	2.033
27.8800	2.084
27.8900	-2.932
27.9000	-2.588
27.9100	-1.257
27.9200	-2.563
27.9300	-2.028
27.9400	3.140
27.9500	2.449
27.9600	2.686
27.9700	1.966
27.9800	2.048
27.9900	-2.938
28.0000	-2.576
28.0100	-1.259
28.0200	-2.553
28.0300	-2.040
28.0400	3.135
28.0500	2.451
28.0600	2.538
28.0700	2.034
28.0800	2.137
28.0900	-2.929
28.1000	-2.600
28.1100	-1.254
28.1200	-2.562
28.1300	-2.035
28.1400	3.155
28.1500	2.412
28.1600	2.730
28.1700	1.964
28.1800	2.050
28.1900	-2.932
28.2000	-2.582
28.2100	-1.268
28.2200	-2.542
28.2300	-2.040
28.2400	3.113
28.2500	2.326
28.2600	2.543
28.2700	2.032
28.2800	2.109
28.2900	-2.933
28.3000	-2.604
28.3100	-1.249
28.3200	-2.557
28.3300	-2.041
28.3400	3.150
28.3500	2.405
28.3600	2.733
28.3700	1.973
28.3800	2.071
28.3900	-2.947
28.4000	-2.556
28.4100	-1.281
28.4200	-2.548
28.4300	-2.025
28.4400	3.126
28.4500	2.434
28.4600	2.549
28.4700	2.033
28.4800	2.164
28.4900	-2.927
28.5000	-2.618
28.5100	-1.236
28.5200	-2.565
28.5300	-2.042
28.5400	3.164
28.5500	2.396
28.5600	2.733
28.5700	1.951
28.5800	2.105
28.5900	-2.952
28.6000	-2.551
28.6100	-1.273
28.6200	-2.545
28.6300	-2.024
28.6400	3.084
28.6500	2.222
28.6600	2.545
28.6700	2.073
28.6800	2.191
28.6900	-2.922
28.7000	-2.625
28.7100	-1.229
28.7200	-2.559
28.7300	-2.040
28.7400	3.171
28.7500	2.377
28.7600	2.740
28.7700	1.961
28.7800	2.073
28.7900	-2.945
28.8000	-2.552
28.8100	-1.287
28.8200	-2.553
28.8300	-2.026
28.8400	3.121
28.8500	2.382
28.8600	2.545
28.8700	2.083
28.8800	2.189
28.8900	-2.921
28.9000	-2.628
28.9100	-1.234
28.9200	-2.564
28.9300	-2.046
28.9400	3.168
28.9500	2.374
28.9600	2.730
28.9700	1.978
28.9800	2.056
28.9900	-2.931
29.0000	-2.557
29.0100	-1.288
29.0200	-2.542
29.0300	-2.037
29.0400	3.095
29.0500	2.273
29.0600	2.543
29.0700	2.048
29.0800	2.132
29.0900	-2.921
29.1000	-2.627
29.1100	-1.248
29.1200	-2.545
29.1300	-2.065
29.1400	3.165
29.1500	2.459
29.1600	2.572
29.1700	2.024
29.1800	2.061
29.1900	-2.885
29.2000	-2.608
29.2100	-1.293
29.2200	-2.518
29.2300	-2.053
29.2400	3.121
29.2500	2.408
29.2600	2.556
29.2700	2.013
29.2800	2.097
29.2900	-2.924
29.3000	-2.604
29.3100	-1.292
29.3200	-2.514
29.3300	-2.058
29.3400	3.141
29.3500	2.485
29.3600	2.544
29.3700	2.006
29.3800	2.045
29.3900	-2.899
29.4000	-2.593
29.4100	-1.269
29.4200	-2.534
29.4300	-2.045
29.4400	3.124
29.4500	2.471
29.4600	2.554
29.4700	2.006
29.4800	2.045
29.4900	-2.914
29.5000	-2.590
29.5100	-1.274
29.5200	-2.539
29.5300	-2.050
29.5400	3.120
29.5500	2.467
29.5600	2.533
29.5700	1.991
29.5800	2.044
29.5900	-2.899
29.6000	-2.598
29.6100	-1.270
29.6200	-2.536
29.6300	-2.044
29.6400	3.124
29.6500	2.478
29.6600	2.562
29.6700	1.980
29.6800	2.029
29.6900	-2.865
29.7000	-2.631
29.7100	-1.305
29.7200	-2.521
29.7300	-2.041
29.7400	3.111
29.7500	2.484
29.7600	2.692
29.7700	1.961
29.7800	2.057
29.7900	-2.913
29.8000	-2.588
29.8100	-1.276
29.8200	-2.532
29.8300	-2.044
29.8400	3.112
29.8500	2.475
29.8600	2.531
29.8700	1.959
29.8800	2.011
29.8900	-2.855
29.9000	-2.633
29.9100	-1.279
29.9200	-2.515
29.9300	-2.055
29.9400	3.117
29.9500	2.452
29.9600	2.697
29.9700	1.979
29.9800	2.042
29.9900	-2.919
30.0000	-2.578
30.0100	-1.290
30.0200	-2.531
30.0300	-2.026
30.0400	3.094
30.0500	2.408
30.0600	2.537
30.0700	1.931
30.0800	2.031
30.0900	-2.882
30.1000	-2.622
30.1100	-1.270
30.1200	-2.539
30.1300	-2.048
30.1400	3.153
30.1500	2.355
30.1600	2.715
30.1700	2.009
30.1800	2.038
30.1900	-2.922
30.2000	-2.569
30.2100	-1.307
30.2200	-2.520
30.2300	-2.036
30.2400	3.095
30.2500	2.366
30.2600	2.527
30.2700	1.970
30.2800	2.055
30.2900	-2.888
30.3000	-2.628
30.3100	-1.284
30.3200	-2.520
30.3300	-2.045
30.3400	3.124
30.3500	2.407
30.3600	2.720
30.3700	1.968
30.3800	2.050
30.3900	-2.915
30.4000	-2.592
30.4100	-1.298
30.4200	-2.523
30.4300	-2.036
30.4400	3.102
30.4500	2.443
30.4600	2.537
30.4700	1.973
30.4800	2.032
30.4900	-2.888
30.5000	-2.622
30.5100	-1.268
30.5200	-2.546
30.5300	-2.036
30.5400	3.118
30.5500	2.421
30.5600	2.689
30.5700	1.951
30.5800	2.026
30.5900	-2.900
30.6000	-2.567
30.6100	-1.296
30.6200	-2.535
30.6300	-2.023
30.6400	3.110
30.6500	2.459
30.6600	2.667
30.6700	1.954
30.6800	2.018
30.6900	-2.880
30.7000	-2.611
30.7100	-1.267
30.7200	-2.537
30.7300	-2.037
30.7400	3.125
30.7500	2.460
30.7600	2.537
30.7700	1.973
30.7800	2.037
30.7900	-2.895
30.8000	-2.598
30.8100	-1.277
30.8200	-2.539
30.8300	-2.020
30.8400	3.123
30.8500	2.440
30.8600	2.694
30.8700	1.937
30.8800	2.037
30.8900	-2.928
30.9000	-2.570
30.9100	-1.279
30.9200	-2.534
30.9300	-2.024
30.9400	3.120
30.9500	2.459
30.9600	2.536
30.9700	1.979
30.9800	2.022
30.9900	-2.866
31.0000	-2.627
31.0100	-1.266
31.0200	-2.546
31.0300	-2.023
31.0400	3.116
31.0500	2.409
31.0600	2.678
31.0700	1.986
31.0800	2.058
31.0900	-2.929
31.1000	-2.561
31.1100	-1.294
31.1200	-2.529
31.1300	-2.034
31.1400	3.029
31.1500	2.127
31.1600	2.563
31.1700	1.987
31.1800	2.082
31.1900	-2.904
31.2000	-2.601
31.2100	-1.280
31.2200	-2.523
31.2300	-2.037
31.2400	3.092
31.2500	2.482
31.2600	2.706
31.2700	1.968
31.2800	2.070
31.2900	-2.913
31.3000	-2.565
31.3100	-1.288
31.3200	-2.528
31.3300	-2.028
31.3400	3.033
31.3500	2.161
31.3600	2.548
31.3700	2.021
31.3800	2.090
31.3900	-2.902
31.4000	-2.597
31.4100	-1.279
31.4200	-2.518
31.4300	-2.037
31.4400	3.097
31.4500	2.493
31.4600	2.664
31.4700	1.968
31.4800	2.067
31.4900	-2.932
31.5000	-2.564
31.5100	-1.280
31.5200	-2.526
31.5300	-2.037
31.5400	3.089
31.5500	2.343
31.5600	2.532
31.5700	2.023
31.5800	2.039
31.5900	-2.889
31.6000	-2.608
31.6100	-1.264
31.6200	-2.535
31.6300	-2.028
31.6400	3.111
31.6500	2.436
31.6600	2.708
31.6700	1.958
31.6800	2.078
31.6900	-2.933
31.7000	-2.554
31.7100	-1.276
31.7200	-2.535
31.7300	-2.033
31.7400	3.093
31.7500	2.337
31.7600	2.537
31.7700	2.035
31.7800	2.081
31.7900	-2.895
31.8000	-2.610
31.8100	-1.252
31.8200	-2.533
31.8300	-2.033
31.8400	3.126
31.8500	2.420
31.8600	2.716
31.8700	1.975
31.8800	2.050
31.8900	-2.919
31.9000	-2.563
31.9100	-1.276
31.9200	-2.528
31.9300	-2.025
31.9400	3.103
31.9500	2.383
31.9600	2.531
31.9700	2.050
31.9800	2.050
31.9900	-2.889
32.0000	-2.623
32.0100	-1.248
32.0200	-2.546
32.0300	-2.025
32.0400	3.124
32.0500	2.392
32.0600	2.691
32.0700	1.971
32.0800	2.064
32.0900	-2.932
32.1000	-2.544
32.1100	-1.283
32.1200	-2.531
32.1300	-2.023
32.1400	3.089
32.1500	2.308
32.1600	2.532
32.1700	2.043
32.1800	2.053
32.1900	-2.891
32.2000	-2.619
32.2100	-1.251
32.2200	-2.545
32.2300	-2.034
32.2400	3.129
32.2500	2.386
32.2600	2.705
32.2700	1.967
32.2800	2.044
32.2900	-2.917
32.3000	-2.554
32.3100	-1.284
32.3200	-2.540
32.3300	-2.016
32.3400	3.098
32.3500	2.414
32.3600	2.534
32.3700	2.043
32.3800	2.032
32.3900	-2.878
32.4000	-2.619
32.4100	-1.248
32.4200	-2.541
32.4300	-2.023
32.4400	3.128
32.4500	2.404
32.4600	2.707
32.4700	1.910
32.4800	2.016
32.4900	-2.885
32.5000	-2.571
32.5100	-1.272
32.5200	-2.546
32.5300	-2.014
32.5400	3.107
32.5500	2.456
32.5600	2.529
32.5700	1.934
32.5800	2.012
32.5900	-2.896
32.6000	-2.600
32.6100	-1.256
32.6200	-2.544
32.6300	-2.020
32.6400	3.107
32.6500	2.435
32.6600	2.687
32.6700	1.916
32.6800	2.022
32.6900	-2.903
32.7000	-2.551
32.7100	-1.276
32.7200	-2.538
32.7300	-2.008
32.7400	3.106
32.7500	2.459
32.7600	2.567
32.7700	1.952
32.7800	2.017
32.7900	-2.875
32.8000	-2.609
32.8100	-1.249
32.8200	-2.532
32.8300	-2.026
32.8400	3.110
32.8500	2.459
32.8600	2.656
32.8700	1.937
32.8800	2.041
32.8900	-2.916
32.9000	-2.561
32.9100	-1.270
32.9200	-2.542
32.9300	-2.006
32.9400	3.093
32.9500	2.462
32.9600	2.533
32.9700	1.969
32.9800	2.022
32.9900	-2.869
33.0000	-2.620
33.0100	-1.254
33.0200	-2.542
33.0300	-2.018
33.0400	3.112
33.0500	2.435
33.0600	2.706
33.0700	1.931
33.0800	2.029
33.0900	-2.906
33.1000	-2.559
33.1100	-1.270
33.1200	-2.539
33.1300	-2.010
33.1400	3.109
33.1500	2.449
33.1600	2.524
33.1700	2.014
33.1800	2.019
33.1900	-2.868
33.2000	-2.612
33.2100	-1.243
33.2200	-2.537
33.2300	-2.016
33.2400	3.115
33.2500	2.401
33.2600	2.664
33.2700	1.962
33.2800	2.061
33.2900	-2.935
33.3000	-2.532
33.3100	-1.274
33.3200	-2.532
33.3300	-2.011
33.3400	3.083
33.3500	2.305
33.3600	2.528
33.3700	2.044
33.3800	2.044
33.3900	-2.892
33.4000	-2.603
33.4100	-1.262
33.4200	-2.528
33.4300	-2.020
33.4400	3.113
33.4500	2.384
33.4600	2.633
33.4700	1.975
33.4800	2.059
33.4900	-2.891
33.5000	-2.563
33.5100	-1.285
33.5200	-2.524
33.5300	-2.007
33.5400	2.987
33.5500	2.165
33.5600	2.551
33.5700	1.973
33.5800	2.109
33.5900	-2.920
33.6000	-2.593
33.6100	-1.274
33.6200	-2.490
33.6300	-2.042
33.6400	3.077
33.6500	2.494
33.6600	2.685
33.6700	1.986
33.6800	2.072
33.6900	-2.893
33.7000	-2.562
33.7100	-1.295
33.7200	-2.503
33.7300	-2.020
33.7400	3.020
33.7500	2.171
33.7600	2.525
33.7700	2.056
33.7800	2.144
33.7900	-2.873
33.8000	-2.626
33.8100	-1.255
33.8200	-2.491
33.8300	-2.029
33.8400	3.017
33.8500	2.125
33.8600	2.539
33.8700	1.993
33.8800	2.108
33.8900	-2.884
33.9000	-2.594
33.9100	-1.271
33.9200	-2.503
33.9300	-2.023
33.9400	2.987
33.9500	2.159
33.9600	2.529
33.9700	1.979
33.9800	2.147
33.9900	-2.891
34.0000	-2.590
34.0100	-1.249
34.0200	-2.517
34.0300	-2.026
34.0400	3.040
34.0500	2.195
34.0600	2.521
34.0700	2.022
34.0800	2.097
34.0900	-2.902
34.1000	-2.575
34.1100	-1.252
34.1200	-2.530
34.1300	-2.018
34.1400	3.090
34.1500	2.467
34.1600	2.556
34.1700	1.954
34.1800	2.007
34.1900	-2.864
34.2000	-2.590
34.2100	-1.253
34.2200	-2.539
34.2300	-2.009
34.2400	3.071
34.2500	2.433
34.2600	2.556
34.2700	1.940
34.2800	2.010
34.2900	-2.875
34.3000	-2.586
34.3100	-1.258
34.3200	-2.534
34.3300	-2.014
34.3400	3.068
34.3500	2.434
34.3600	2.540
34.3700	1.935
34.3800	2.016
34.3900	-2.890
34.4000	-2.567
34.4100	-1.262
34.4200	-2.540
34.4300	-2.008
34.4400	3.088
34.4500	2.448
34.4600	2.604
34.4700	1.918
34.4800	2.004
34.4900	-2.889
34.5000	-2.571
34.5100	-1.252
34.5200	-2.547
34.5300	-2.004
34.5400	3.082
34.5500	2.456
34.5600	2.599
34.5700	1.914
34.5800	2.009
34.5900	-2.871
34.6000	-2.585
34.6100	-1.255
34.6200	-2.550
34.6300	-2.009
34.6400	3.087
34.6500	2.452
34.6600	2.642
34.6700	1.903
34.6800	2.015
34.6900	-2.903
34.7000	-2.562
34.7100	-1.258
34.7200	-2.545
34.7300	-1.997
34.7400	3.095
34.7500	2.432
34.7600	2.593
34.7700	1.929
34.7800	2.008
34.7900	-2.880
34.8000	-2.577
34.8100	-1.258
34.8200	-2.548
34.8300	-2.006
34.8400	3.089
34.8500	2.430
34.8600	2.679
34.8700	1.925
34.8800	2.025
34.8900	-2.919
34.9000	-2.547
34.9100	-1.265
34.9200	-2.561
34.9300	-1.993
34.9400	3.097
34.9500	2.434
34.9600	2.511
34.9700	1.968
34.9800	2.004
34.9900	-2.858
35.0000	-2.608
35.0100	-1.247
35.0200	-2.536
35.0300	-2.001
35.0400	3.092
35.0500	2.382
35.0600	2.633
35.0700	1.932
35.0800	2.055
35.0900	-2.907
35.1000	-2.538
35.1100	-1.267
35.1200	-2.543
35.1300	-1.991
35.1400	3.066
35.1500	2.318
35.1600	2.515
35.1700	2.019
35.1800	2.058
35.1900	-2.907
35.2000	-2.590
35.2100	-1.248
35.2200	-2.528
35.2300	-2.012
35.2400	3.129
35.2500	2.343
35.2600	2.659
35.2700	1.979
35.2800	2.035
35.2900	-2.915
35.3000	-2.527
35.3100	-1.276
35.3200	-2.535
35.3300	-1.997
35.3400	3.038
35.3500	2.134
35.3600	2.533
35.3700	1.969
35.3800	2.073
35.3900	-2.901
35.4000	-2.594
35.4100	-1.251
35.4200	-2.523
35.4300	-2.017
35.4400	3.135
35.4500	2.329
35.4600	2.648
35.4700	2.016
35.4800	2.029
35.4900	-2.875
35.5000	-2.561
35.5100	-1.276
35.5200	-2.532
35.5300	-1.980
35.5400	3.021
35.5500	2.180
35.5600	2.513
35.5700	2.028
35.5800	2.033
35.5900	-2.913
35.6000	-2.586
35.6100	-1.284
35.6200	-2.500
35.6300	-2.017
35.6400	3.091
35.6500	2.395
35.6600	2.682
35.6700	1.965
35.6800	2.022
35.6900	-2.891
35.7000	-2.559
35.7100	-1.280
35.7200	-2.528
35.7300	-1.992
35.7400	3.070
35.7500	2.452
35.7600	2.529
35.7700	1.942
35.7800	2.005
35.7900	-2.894
35.8000	-2.584
35.8100	-1.267
35.8200	-2.532
35.8300	-2.011
35.8400	3.123
35.8500	2.344
35.8600	2.694
35.8700	1.973
35.8800	1.997
35.8900	-2.847
35.9000	-2.615
35.9100	-1.279
35.9200	-2.521
35.9300	-2.011
35.9400	3.083
35.9500	2.444
35.9600	2.615
35.9700	1.924
35.9800	2.012
35.9900	-2.902
36.0000	-2.570
36.0100	-1.290
36.0200	-2.526
36.0300	-1.994
36.0400	3.109
36.0500	2.363
36.0600	2.691
36.0700	1.924
36.0800	1.998
36.0900	-2.898
36.1000	-2.559
36.1100	-1.265
36.1200	-2.540
36.1300	-1.988
36.1400	3.094
36.1500	2.423
36.1600	2.610
36.1700	1.926
36.1800	2.007
36.1900	-2.877
36.2000	-2.586
36.2100	-1.263
36.2200	-2.526
36.2300	-2.004
36.2400	3.095
36.2500	2.392
36.2600	2.625
36.2700	1.967
36.2800	2.076
36.2900	-2.908
36.3000	-2.565
36.3100	-1.276
36.3200	-2.508
36.3300	-2.008
36.3400	3.008
36.3500	2.109
36.3600	2.524
36.3700	1.970
36.3800	2.107
36.3900	-2.857
36.4000	-2.628
36.4100	-1.254
36.4200	-2.488
36.4300	-2.017
36.4400	3.016
36.4500	2.335
36.4600	2.662
36.4700	1.995
36.4800	2.112
36.4900	-2.866
36.5000	-2.608
36.5100	-1.295
36.5200	-2.479
36.5300	-2.020
36.5400	3.003
36.5500	2.111
36.5600	2.539
36.5700	1.985
36.5800	2.130
36.5900	-2.856
36.6000	-2.624
36.6100	-1.237
36.6200	-2.487
36.6300	-2.017
36.6400	3.063
36.6500	2.398
36.6600	2.513
36.6700	1.963
36.6800	2.016
36.6900	-2.854
36.7000	-2.575
36.7100	-1.270
36.7200	-2.529
36.7300	-2.003
36.7400	3.070
36.7500	2.441
36.7600	2.617
36.7700	1.945
36.7800	2.032
36.7900	-2.909
36.8000	-2.570
36.8100	-1.262
36.8200	-2.514
36.8300	-2.004
36.8400	3.103
36.8500	2.418
36.8600	2.556
36.8700	1.965
36.8800	2.000
36.8900	-2.859
36.9000	-2.599
36.9100	-1.270
36.9200	-2.526
36.9300	-1.995
36.9400	3.090
36.9500	2.398
36.9600	2.656
36.9700	1.988
36.9800	2.009
36.9900	-2.907
37.0000	-2.535
37.0100	-1.262
37.0200	-2.531
37.0300	-1.983
37.0400	3.065
37.0500	2.410
37.0600	2.505
37.0700	1.997
37.0800	2.006
37.0900	-2.879
37.1000	-2.587
37.1100	-1.251
37.1200	-2.532
37.1300	-2.003
37.1400	3.103
37.1500	2.369
37.1600	2.670
37.1700	1.948
37.1800	2.030
37.1900	-2.912
37.2000	-2.531
37.2100	-1.263
37.2200	-2.541
37.2300	-1.982
37.2400	3.063
37.2500	2.274
37.2600	2.515
37.2700	2.010
37.2800	2.112
37.2900	-2.929
37.3000	-2.568
37.3100	-1.252
37.3200	-2.535
37.3300	-1.998
37.3400	3.114
37.3500	2.352
37.3600	2.750
37.3700	1.953
37.3800	2.014
37.3900	-2.889
37.4000	-2.514
37.4100	-1.295
37.4200	-2.538
37.4300	-1.968
37.4400	3.062
37.4500	2.239
37.4600	2.504
37.4700	2.020
37.4800	2.122
37.4900	-2.911
37.5000	-2.592
37.5100	-1.240
37.5200	-2.509
37.5300	-2.026
37.5400	3.140
37.5500	2.322
37.5600	2.672
37.5700	1.986
37.5800	2.014
37.5900	-2.877
37.6000	-2.524
37.6100	-1.290
37.6200	-2.509
37.6300	-1.993
37.6400	3.023
37.6500	2.089
37.6600	2.532
37.6700	1.924
37.6800	2.073
37.6900	-2.899
37.7000	-2.593
37.7100	-1.243
37.7200	-2.514
37.7300	-2.008
37.7400	3.111
37.7500	2.333
37.7600	2.655
37.7700	1.978
37.7800	2.029
37.7900	-2.891
37.8000	-2.513
37.8100	-1.284
37.8200	-2.526
37.8300	-1.980
37.8400	2.996
37.8500	2.125
37.8600	2.482
37.8700	1.941
37.8800	2.086
37.8900	-2.877
37.9000	-2.613
37.9100	-1.236
37.9200	-2.510
37.9300	-2.005
37.9400	3.112
37.9500	2.337
37.9600	2.725
37.9700	1.989
37.9800	2.034
37.9900	-2.876
38.0000	-2.537
38.0100	-1.292
38.0200	-2.506
38.0300	-1.975
38.0400	3.014
38.0500	2.088
38.0600	2.488
38.0700	1.964
38.0800	2.123
38.0900	-2.863
38.1000	-2.628
38.1100	-1.237
38.1200	-2.512
38.1300	-2.007
38.1400	3.126
38.1500	2.330
38.1600	2.665
38.1700	2.001
38.1800	2.029
38.1900	-2.882
38.2000	-2.524
38.2100	-1.299
38.2200	-2.510
38.2300	-1.986
38.2400	3.030
38.2500	2.133
38.2600	2.527
38.2700	1.995
38.2800	2.049
38.2900	-2.893
38.3000	-2.595
38.3100	-1.245
38.3200	-2.506
38.3300	-2.003
38.3400	3.101
38.3500	2.340
38.3600	2.658
38.3700	1.992
38.3800	2.031
38.3900	-2.891
38.4000	-2.521
38.4100	-1.279
38.4200	-2.523
38.4300	-1.976
38.4400	3.035
38.4500	2.159
38.4600	2.510
38.4700	1.999
38.4800	2.043
38.4900	-2.904
38.5000	-2.581
38.5100	-1.245
38.5200	-2.528
38.5300	-2.001
38.5400	3.107
38.5500	2.324
38.5600	2.677
38.5700	1.990
38.5800	2.020
38.5900	-2.889
38.6000	-2.521
38.6100	-1.278
38.6200	-2.523
38.6300	-1.993
38.6400	3.077
38.6500	2.397
38.6600	2.510
38.6700	1.993
38.6800	2.006
38.6900	-2.886
38.7000	-2.578
38.7100	-1.245
38.7200	-2.526
38.7300	-2.003
38.7400	3.098
38.7500	2.413
38.7600	2.647
38.7700	1.901
38.7800	1.983
38.7900	-2.868
38.8000	-2.551
38.8100	-1.263
38.8200	-2.545
38.8300	-1.981
38.8400	3.088
38.8500	2.422
38.8600	2.604
38.8700	1.917
38.8800	2.010
38.8900	-2.872
38.9000	-2.573
38.9100	-1.247
38.9200	-2.543
38.9300	-1.989
38.9400	3.127
38.9500	2.326
38.9600	2.692
38.9700	1.930
38.9800	1.985
38.9900	-2.873
39.0000	-2.559
39.0100	-1.251
39.0200	-2.540
39.0300	-1.985
39.0400	3.104
39.0500	2.402
39.0600	2.543
39.0700	1.920
39.0800	1.998
39.0900	-2.881
39.1000	-2.571
39.1100	-1.249
39.1200	-2.540
39.1300	-1.984
39.1400	3.106
39.1500	2.347
39.1600	2.680
39.1700	1.925
39.1800	2.001
39.1900	-2.908
39.2000	-2.529
39.2100	-1.262
39.2200	-2.551
39.2300	-1.967
39.2400	3.104
39.2500	2.382
39.2600	2.539
39.2700	1.920
39.2800	1.995
39.2900	-2.880
39.3000	-2.568
39.3100	-1.241
39.3200	-2.546
39.3300	-1.987
39.3400	3.099
39.3500	2.346
39.3600	2.640
39.3700	1.975
39.3800	2.031
39.3900	-2.886
39.4000	-2.533
39.4100	-1.270
39.4200	-2.524
39.4300	-1.982
39.4400	3.065
39.4500	2.429
39.4600	2.495
39.4700	1.963
39.4800	2.028
39.4900	-2.897
39.5000	-2.565
39.5100	-1.252
39.5200	-2.535
39.5300	-1.984
39.5400	3.121
39.5500	2.311
39.5600	2.683
39.5700	1.995
39.5800	1.995
39.5900	-2.883
39.6000	-2.534
39.6100	-1.263
39.6200	-2.546
39.6300	-1.987
39.6400	3.110
39.6500	2.393
39.6600	2.542
39.6700	1.917
39.6800	1.996
39.6900	-2.880
39.7000	-2.579
39.7100	-1.249
39.7200	-2.544
39.7300	-1.993
39.7400	3.118
39.7500	2.318
39.7600	2.682
39.7700	1.975
39.7800	1.986
39.7900	-2.890
39.8000	-2.528
39.8100	-1.263
39.8200	-2.548
39.8300	-1.970
39.8400	3.115
39.8500	2.344
39.8600	2.644
39.8700	1.973
39.8800	2.003
39.8900	-2.884
39.9000	-2.577
39.9100	-1.245
39.9200	-2.537
39.9300	-1.996
39.9400	3.127
39.9500	2.326
39.9600	2.678
39.9700	2.001
39.9800	1.992
39.9900	-2.867
40.0000	-2.556
40.0100	-1.261
40.0200	-2.543
40.0300	-1.970
40.0400	3.121
40.0500	2.321
40.0600	2.659
40.0700	2.033
40.0800	2.001
40.0900	-2.901
40.1000	-2.546
40.1100	-1.251
40.1200	-2.543
40.1300	-1.973
40.1400	3.121
40.1500	2.310
40.1600	2.656
40.1700	2.028
40.1800	1.987
40.1900	-2.889
40.2000	-2.573
40.2100	-1.265
40.2200	-2.535
40.2300	-1.992
40.2400	3.115
40.2500	2.336
40.2600	2.674
40.2700	2.034
40.2800	2.009
40.2900	-2.865
40.3000	-2.586
40.3100	-1.271
40.3200	-2.507
40.3300	-1.998
40.3400	3.107
40.3500	2.350
40.3600	2.663
40.3700	2.016
40.3800	1.994
40.3900	-2.900
40.4000	-2.540
40.4100	-1.249
40.4200	-2.542
40.4300	-1.983
40.4400	3.125
40.4500	2.321
40.4600	2.647
40.4700	2.023
40.4800	1.991
40.4900	-2.900
40.5000	-2.557
40.5100	-1.271
40.5200	-2.532
40.5300	-1.994
40.5400	3.136
40.5500	2.318
40.5600	2.679
40.5700	1.986
40.5800	1.973
40.5900	-2.887
40.6000	-2.552
40.6100	-1.254
40.6200	-2.537
40.6300	-1.989
40.6400	3.122
40.6500	2.336
40.6600	2.558
40.6700	1.930
40.6800	2.005
40.6900	-2.875
40.7000	-2.564
40.7100	-1.254
40.7200	-2.542
40.7300	-1.990
40.7400	3.135
40.7500	2.352
40.7600	2.722
40.7700	1.999
40.7800	2.010
40.7900	-2.902
40.8000	-2.521
40.8100	-1.265
40.8200	-2.550
40.8300	-1.982
40.8400	3.051
40.8500	2.171
40.8600	2.503
40.8700	2.109
40.8800	2.134
40.8900	-2.904
40.9000	-2.582
40.9100	-1.245
40.9200	-2.540
40.9300	-1.995
40.9400	3.140
40.9500	2.333
40.9600	2.671
40.9700	2.006
40.9800	2.009
40.9900	-2.882
41.0000	-2.521
41.0100	-1.291
41.0200	-2.497
41.0300	-2.009
41.0400	3.013
41.0500	2.124
41.0600	2.519
41.0700	1.990
41.0800	2.031
41.0900	-2.886
41.1000	-2.581
41.1100	-1.252
41.1200	-2.500
41.1300	-2.013
41.1400	3.085
41.1500	2.392
41.1600	2.650
41.1700	2.018
41.1800	2.027
41.1900	-2.886
41.2000	-2.524
41.2100	-1.292
41.2200	-2.512
41.2300	-1.999
41.2400	3.018
41.2500	2.148
41.2600	2.518
41.2700	2.014
41.2800	2.109
41.2900	-2.909
41.3000	-2.574
41.3100	-1.245
41.3200	-2.491
41.3300	-2.013
41.3400	3.076
41.3500	2.465
41.3600	2.539
41.3700	1.950
41.3800	2.027
41.3900	-2.882
41.4000	-2.550
41.4100	-1.259
41.4200	-2.532
41.4300	-1.997
41.4400	3.096
41.4500	2.454
41.4600	2.626
41.4700	1.946
41.4800	2.028
41.4900	-2.918
41.5000	-2.543
41.5100	-1.252
41.5200	-2.526
41.5300	-2.005
41.5400	3.107
41.5500	2.441
41.5600	2.517
41.5700	1.996
41.5800	2.016
41.5900	-2.863
41.6000	-2.578
41.6100	-1.239
41.6200	-2.552
41.6300	-1.994
41.6400	3.115
41.6500	2.435
41.6600	2.692
41.6700	1.919
41.6800	1.997
41.6900	-2.879
41.7000	-2.550
41.7100	-1.257
41.7200	-2.537
41.7300	-1.997
41.7400	3.120
41.7500	2.411
41.7600	2.511
41.7700	1.993
41.7800	2.078
41.7900	-2.894
41.8000	-2.565
41.8100	-1.252
41.8200	-2.566
41.8300	-1.981
41.8400	3.130
41.8500	2.351
41.8600	2.678
41.8700	1.974
41.8800	2.014
41.8900	-2.905
41.9000	-2.521
41.9100	-1.268
41.9200	-2.540
41.9300	-1.986
41.9400	3.112
41.9500	2.407
41.9600	2.521
41.9700	1.995
41.9800	2.007
41.9900	-2.879
42.0000	-2.582
42.0100	-1.245
42.0200	-2.548
42.0300	-1.995
42.0400	3.135
42.0500	2.335
42.0600	2.675
42.0700	2.012
42.0800	2.028
42.0900	-2.903
42.1000	-2.527
42.1100	-1.273
42.1200	-2.531
42.1300	-1.998
42.1400	3.062
42.1500	2.250
42.1600	2.507
42.1700	2.004
42.1800	2.058
42.1900	-2.892
42.2000	-2.559
42.2100	-1.245
42.2200	-2.539
42.2300	-2.000
42.2400	3.104
42.2500	2.365
42.2600	2.656
42.2700	1.998
42.2800	2.059
42.2900	-2.885
42.3000	-2.547
42.3100	-1.279
42.3200	-2.510
42.3300	-2.009
42.3400	3.027
42.3500	2.106
42.3600	2.530
42.3700	1.969
42.3800	2.094
42.3900	-2.910
42.4000	-2.564
42.4100	-1.255
42.4200	-2.502
42.4300	-2.011
42.4400	3.092
42.4500	2.385
42.4600	2.670
42.4700	1.992
42.4800	2.015
42.4900	-2.893
42.5000	-2.525
42.5100	-1.274
42.5200	-2.521
42.5300	-1.983
42.5400	3.044
42.5500	2.270
42.5600	2.501
42.5700	2.028
42.5800	2.050
42.5900	-2.920
42.6000	-2.542
42.6100	-1.252
42.6200	-2.517
42.6300	-2.006
42.6400	3.113
42.6500	2.358
42.6600	2.657
42.6700	1.952
42.6800	2.008
42.6900	-2.886
42.7000	-2.534
42.7100	-1.261
42.7200	-2.535
42.7300	-1.984
42.7400	3.098
42.7500	2.430
42.7600	2.534
42.7700	1.965
42.7800	2.012
42.7900	-2.882
42.8000	-2.561
42.8100	-1.242
42.8200	-2.540
42.8300	-1.991
42.8400	3.113
42.8500	2.349
42.8600	2.668
42.8700	1.956
42.8800	2.017
42.8900	-2.893
42.9000	-2.541
42.9100	-1.257
42.9200	-2.534
42.9300	-1.986
42.9400	3.080
42.9500	2.429
42.9600	2.559
42.9700	1.949
42.9800	2.009
42.9900	-2.872
43.0000	-2.559
43.0100	-1.253
43.0200	-2.519
43.0300	-1.992
43.0400	3.104
43.0500	2.361
43.0600	2.675
43.0700	1.945
43.0800	2.005
43.0900	-2.873
43.1000	-2.551
43.1100	-1.258
43.1200	-2.521
43.1300	-1.985
43.1400	3.076
43.1500	2.441
43.1600	2.548
43.1700	1.964
43.1800	2.009
43.1900	-2.866
43.2000	-2.562
43.2100	-1.267
43.2200	-2.508
43.2300	-1.981
43.2400	3.066
43.2500	2.391
43.2600	2.644
43.2700	1.984
43.2800	2.052
43.2900	-2.891
43.3000	-2.539
43.3100	-1.272
43.3200	-2.496
43.3300	-1.998
43.3400	2.957
43.3500	2.144
43.3600	2.499
43.3700	1.984
43.3800	2.103
43.3900	-2.882
43.4000	-2.561
43.4100	-1.267
43.4200	-2.503
43.4300	-1.981
43.4400	3.034
43.4500	2.476
43.4600	2.604
43.4700	2.000
43.4800	2.080
43.4900	-2.817
43.5000	-2.587
43.5100	-1.342
43.5200	-2.446
43.5300	-2.009
43.5400	3.015
43.5500	2.222
43.5600	2.628
43.5700	2.004
43.5800	2.111
43.5900	-2.781
43.6000	-2.642
43.6100	-1.314
43.6200	-2.419
43.6300	-2.032
43.6400	3.000
43.6500	2.251
43.6600	2.561
43.6700	2.000
43.6800	2.095
43.6900	-2.828
43.7000	-2.611
43.7100	-1.281
43.7200	-2.476
43.7300	-2.012
43.7400	3.026
43.7500	2.337
43.7600	2.565
43.7700	2.018
43.7800	2.058
43.7900	-2.822
43.8000	-2.616
43.8100	-1.290
43.8200	-2.471
43.8300	-2.014
43.8400	3.016
43.8500	2.453
43.8600	2.597
43.8700	2.050
43.8800	2.119
43.8900	-2.780
43.9000	-2.603
43.9100	-1.373
43.9200	-2.404
43.9300	-2.028
43.9400	3.029
43.9500	2.380
43.9600	2.642
43.9700	1.981
43.9800	2.089
43.9900	-2.819
44.0000	-2.617
44.0100	-1.293
44.0200	-2.470
44.0300	-2.001
44.0400	3.027
44.0500	2.443
44.0600	2.594
44.0700	2.015
44.0800	2.048
44.0900	-2.829
44.1000	-2.586
44.1100	-1.338
44.1200	-2.453
44.1300	-2.000
44.1400	3.053
44.1500	2.423
44.1600	2.717
44.1700	2.012
44.1800	1.992
44.1900	-2.837
44.2000	-2.578
44.2100	-1.306
44.2200	-2.532
44.2300	-1.965
44.2400	3.131
44.2500	2.424
44.2600	2.485
44.2700	2.018
44.2800	2.059
44.2900	-2.908
44.3000	-2.576
44.3100	-1.259
44.3200	-2.537
44.3300	-1.977
44.3400	3.124
44.3500	2.643
44.3600	1.339
44.3700	1.946
44.3800	2.133
44.3900	-2.803
44.4000	-2.548
44.4100	-1.331
44.4200	-2.477
44.4300	-1.992
44.4400	3.148
44.4500	2.258
44.4600	2.175
44.4700	1.721
44.4800	1.918
44.4900	-2.882
44.5000	-2.654
44.5100	-1.158
44.5200	-2.615
44.5300	-1.959
44.5400	3.195
44.5500	2.598
44.5600	2.676
44.5700	1.959
44.5800	1.993
44.5900	-2.833
44.6000	-2.495
44.6100	-1.340
44.6200	-2.483
44.6300	-1.978
44.6400	3.086
44.6500	2.372
44.6600	2.646
44.6700	2.028
44.6800	2.023
44.6900	-2.926
44.7000	-2.551
44.7100	-1.241
44.7200	-2.545
44.7300	-1.978
44.7400	3.086
44.7500	2.388
44.7600	2.632
44.7700	1.998
44.7800	2.046
44.7900	-2.860
44.8000	-2.543
44.8100	-1.302
44.8200	-2.489
44.8300	-1.992
44.8400	3.015
44.8500	2.477
44.8600	2.627
44.8700	1.916
44.8800	2.095
44.8900	-2.892
44.9000	-2.546
44.9100	-1.264
44.9200	-2.539
44.9300	-1.965
44.9400	3.085
44.9500	2.421
44.9600	2.564
44.9700	1.968
44.9800	2.009
44.9900	-2.866
45.0000	-2.572
45.0100	-1.278
45.0200	-2.534
45.0300	-1.987
45.0400	3.131
45.0500	2.388
45.0600	2.781
45.0700	2.005
45.0800	1.981
45.0900	-2.891
45.1000	-2.510
45.1100	-1.283
45.1200	-2.559
45.1300	-1.954
45.1400	3.063
45.1500	2.315
45.1600	2.495
45.1700	1.995
45.1800	2.036
45.1900	-2.915
45.2000	-2.559
45.2100	-1.245
45.2200	-2.540
45.2300	-1.994
45.2400	3.168
45.2500	2.473
45.2600	2.815
45.2700	1.932
45.2800	1.998
45.2900	-2.876
45.3000	-2.499
45.3100	-1.297
45.3200	-2.540
45.3300	-1.965
45.3400	3.081
45.3500	2.206
45.3600	2.492
45.3700	2.097
45.3800	2.127
45.3900	-2.917
45.4000	-2.581
45.4100	-1.225
45.4200	-2.532
45.4300	-1.993
45.4400	3.151
45.4500	2.405
45.4600	2.806
45.4700	1.949
45.4800	2.004
45.4900	-2.850
45.5000	-2.514
45.5100	-1.309
45.5200	-2.510
45.5300	-1.981
45.5400	3.029
45.5500	2.128
45.5600	2.524
45.5700	1.956
45.5800	2.087
45.5900	-2.904
45.6000	-2.582
45.6100	-1.227
45.6200	-2.528
45.6300	-1.993
45.6400	3.118
45.6500	2.336
45.6600	2.722
45.6700	1.991
45.6800	2.024
45.6900	-2.869
45.7000	-2.517
45.7100	-1.298
45.7200	-2.521
45.7300	-1.999
45.7400	2.995
45.7500	2.145
45.7600	2.477
45.7700	1.988
45.7800	2.119
45.7900	-2.869
45.8000	-2.603
45.8100	-1.226
45.8200	-2.503
45.8300	-2.007
45.8400	3.113
45.8500	2.333
45.8600	2.651
45.8700	1.986
45.8800	2.029
45.8900	-2.879
45.9000	-2.514
45.9100	-1.282
45.9200	-2.523
45.9300	-1.984
45.9400	3.052
45.9500	2.293
45.9600	2.520
45.9700	2.015
45.9800	2.061
45.9900	-2.903
46.0000	-2.557
46.0100	-1.235
46.0200	-2.491
46.0300	-2.000
46.0400	3.087
46.0500	2.413
46.0600	2.662
46.0700	1.961
46.0800	2.008
46.0900	-2.891
46.1000	-2.515
46.1100	-1.267
46.1200	-2.526
46.1300	-1.984
46.1400	3.066
46.1500	2.462
46.1600	2.663
46.1700	1.941
46.1800	2.045
46.1900	-2.922
46.2000	-2.520
46.2100	-1.251
46.2200	-2.520
46.2300	-1.970
46.2400	3.096
46.2500	2.355
46.2600	2.656
46.2700	1.935
46.2800	2.010
46.2900	-2.894
46.3000	-2.529
46.3100	-1.252
46.3200	-2.533
46.3300	-1.961
46.3400	3.095
46.3500	2.340
46.3600	2.648
46.3700	1.971
46.3800	2.030
46.3900	-2.917
46.4000	-2.500
46.4100	-1.263
46.4200	-2.533
46.4300	-1.961
46.4400	3.089
46.4500	2.404
46.4600	2.568
46.4700	1.923
46.4800	2.002
46.4900	-2.887
46.5000	-2.546
46.5100	-1.239
46.5200	-2.528
46.5300	-1.975
46.5400	3.123
46.5500	2.310
46.5600	2.666
46.5700	1.986
46.5800	2.018
46.5900	-2.915
46.6000	-2.488
46.6100	-1.265
46.6200	-2.543
46.6300	-1.969
46.6400	3.068
46.6500	2.440
46.6600	2.497
46.6700	1.998
46.6800	2.004
46.6900	-2.885
46.7000	-2.561
46.7100	-1.235
46.7200	-2.537
46.7300	-1.976
46.7400	3.128
46.7500	2.313
46.7600	2.663
46.7700	1.968
46.7800	2.023
46.7900	-2.911
46.8000	-2.498
46.8100	-1.270
46.8200	-2.531
46.8300	-1.976
46.8400	3.066
46.8500	2.409
46.8600	2.499
46.8700	2.006
46.8800	2.024
46.8900	-2.911
46.9000	-2.545
46.9100	-1.237
46.9200	-2.534
46.9300	-1.979
46.9400	3.136
46.9500	2.316
46.9600	2.653
46.9700	1.995
46.9800	2.015
46.9900	-2.897
47.0000	-2.499
47.0100	-1.279
47.0200	-2.532
47.0300	-1.977
47.0400	3.086
47.0500	2.448
47.0600	2.519
47.0700	1.950
47.0800	2.011
47.0900	-2.915
47.1000	-2.539
47.1100	-1.237
47.1200	-2.536
47.1300	-1.972
47.1400	3.135
47.1500	2.298
47.1600	2.675
47.1700	1.981
47.1800	2.001
47.1900	-2.888
47.2000	-2.521
47.2100	-1.254
47.2200	-2.542
47.2300	-1.968
47.2400	3.096
47.2500	2.385
47.2600	2.662
47.2700	1.921
47.2800	2.006
47.2900	-2.909
47.3000	-2.535
47.3100	-1.242
47.3200	-2.532
47.3300	-1.964
47.3400	3.139
47.3500	2.288
47.3600	2.681
47.3700	1.958
47.3800	2.006
47.3900	-2.878
47.4000	-2.529
47.4100	-1.255
47.4200	-2.540
47.4300	-1.965
47.4400	3.114
47.4500	2.333
47.4600	2.676
47.4700	1.918
47.4800	1.996
47.4900	-2.909
47.5000	-2.518
47.5100	-1.250
47.5200	-2.540
47.5300	-1.962
47.5400	3.114
47.5500	2.329
47.5600	2.676
47.5700	1.906
47.5800	1.989
47.5900	-2.882
47.6000	-2.546
47.6100	-1.249
47.6200	-2.535
47.6300	-1.959
47.6400	3.117
47.6500	2.320
47.6600	2.675
47.6700	1.920
47.6800	2.007
47.6900	-2.904
47.7000	-2.513
47.7100	-1.252
47.7200	-2.551
47.7300	-1.954
47.7400	3.122
47.7500	2.322
47.7600	2.670
47.7700	1.931
47.7800	1.991
47.7900	-2.862
47.8000	-2.561
47.8100	-1.241
47.8200	-2.542
47.8300	-1.968
47.8400	3.114
47.8500	2.326
47.8600	2.647
47.8700	1.951
47.8800	2.036
47.8900	-2.914
47.9000	-2.496
47.9100	-1.270
47.9200	-2.543
47.9300	-1.965
47.9400	3.115
47.9500	2.352
47.9600	2.548
47.9700	1.970
47.9800	2.003
47.9900	-2.894
48.0000	-2.559
48.0100	-1.237
48.0200	-2.533
48.0300	-1.983
48.0400	3.132
48.0500	2.333
48.0600	2.708
48.0700	1.943
48.0800	2.017
48.0900	-2.905
48.1000	-2.490
48.1100	-1.278
48.1200	-2.526
48.1300	-1.976
48.1400	3.073
48.1500	2.424
48.1600	2.500
48.1700	2.008
48.1800	2.037
48.1900	-2.908
48.2000	-2.552
48.2100	-1.240
48.2200	-2.529
48.2300	-1.973
48.2400	3.132
48.2500	2.347
48.2600	2.687
48.2700	2.014
48.2800	2.011
48.2900	-2.882
48.3000	-2.511
48.3100	-1.293
48.3200	-2.514
48.3300	-1.976
48.3400	2.988
48.3500	2.142
48.3600	2.521
48.3700	1.994
48.3800	2.111
48.3900	-2.891
48.4000	-2.546
